,0,1,2,3,4,5,6,7,8,9,10,11,12,13,14,15,16,17,18,19,20,21,22,23,24,25,26,27,28,29,30,31,32,33,34,35,36,37,38,39,40,41,42,43,44,45,46,47,48,49,50,51,52,53,54,55,56,57,58,59,60,61,62,63,64,65,66,67,68,69,70,71,72,73,74,75,76,77,78,79,80
0,-0.8919358792987768,0.03294155727359534,0.9975274084330653,0.5518701250369584,-0.010994927346101609,0.17532788964521095,0.17087934691843124,-0.085334874807775,-0.030682278797996967,0.0019256407160829201,-0.09159708687500659,0.027789751922066338,0.026556870793299575,-0.08970474275270784,0.018837639119343358,-0.10119519865720782,0.014688306810681817,0.031201627328244556,-0.09164998716631724,0.025099502041266007,-0.16299914159628118,-0.028185686653093008,-0.07151352470819147,0.13582926753410418,0.08695939935548655,-0.06570772817093302,0.11247432457619695,-0.05910329330618906,-0.061653982311215653,-0.03584594178361887,-0.0085770222172697,0.06097693194206182,0.08740390649798412,-0.06949024326196682,-0.00539931788674257,-0.10139037375860883,-0.05282126653548429,-0.024820189696662907,0.09671865983947571,0.007552805971149425,-0.033977509390298984,-0.012083319719607355,-0.05246398158448359,-0.049264277252469416,0.005089955057029435,0.0909827852698086,-0.030063439211034822,-0.14542871493096135,-0.07091992437988497,0.04070061806274816,-0.03225130250930349,-0.008752796115853263,-0.006180782793017653,-0.08144212347400094,0.021010350186361472,-0.018793971121004734,-0.06999074868655504,0.11528625227612789,0.030676921723630988,0.026449043392633608,0.0048426693926884425,-0.0924762378979359,0.04392734967808883,-0.08947496102702714,-0.010386105240350175,-0.056952475827597535,0.11274124677340161,-0.0048313453975253285,-0.0030027154565474964,0.05461413344958443,-0.05119072384611492,-0.0023590262695309464,-0.028333865528130095,0.008407122213391146,-0.08148118767777532,-0.007845229852295747,-0.01853899028037312,0.034476638101813645,0.04700326364339091,-0.05778397569615539,0.004047823394847711
1,0.6060736793432795,-0.3181995837229901,0.3720327458858872,-0.4126668432540739,-0.12418683156218253,0.17464976698153814,-0.014256702624086648,0.11763657589145259,0.04057619977802949,0.0780028445973277,-0.026962073017834265,-0.05438894493290238,0.030506298223353226,-0.1678885965156797,-0.07886957778558826,-0.03165228444060146,0.20622150401788086,0.08588269859372144,-0.01633194227809486,-0.1554963394323384,-0.14769805030798427,-0.05745915746530723,-0.04897258519550557,-0.10010384140023196,-0.04408625204797535,0.06069542594322912,0.08765649035683,-0.0036321085926319155,0.06662899150056965,0.0011914593273258081,-0.007622850179735301,-0.0993309777193114,0.03843987617909727,-0.060360055751897596,-0.053081542122446715,0.008075336154027914,0.12251043840844272,0.003754273506580203,0.07859773374247857,0.00619589617349807,-0.08842854952740327,0.04206958522121149,0.04498944953427342,-0.0701047385181916,0.035725949081546735,0.06807268040211231,0.054674661875169984,0.04821032631935598,0.01241758194027658,0.00910031858723869,-0.08654517512368912,0.08760953604685535,-0.0404277751462887,-0.003172486308790933,0.06133133900782184,0.08685844762284393,0.03655548373282547,-0.03499510699940432,-0.017352840741908626,0.05398638681661783,0.1629120078245733,0.06575211840343297,0.0019812541789601262,-0.004836528785739555,-0.03623220129790101,0.037950782720094986,0.027343336715559118,-0.05084655833861574,-0.02327808627087293,-0.08006111867527543,0.03904076258588351,0.035419129212267475,-0.04014849031792429,-0.012241596371448293,0.06937499884651334,-0.056297747902290585,-0.11634843283191323,0.015334943810227219,-0.05321387704942447,-0.0910554940521142,0.035299885411086744
2,0.6530677029675859,-0.5843435439336675,-0.23961212391131687,0.2292742104272618,0.11946980669727883,0.20060533146480444,-0.16454247586361934,0.14237451706670215,0.01847006835879245,-0.14380871419304428,0.14124533802058908,-0.10318463375904592,-0.24904744403846624,-0.05260530869041637,0.19235536541729975,0.041185389267140916,-0.09210207470632213,-0.10500057530554609,-0.06899929123919371,0.026881405872115276,-0.04493525214282084,-0.039867263240407284,0.07853169135940365,-0.08379376828431763,0.16795012937468054,-0.049670496592567184,-0.0075342301269249986,0.07414419739954682,-0.11716803632705071,0.03197122236195528,0.08485456970589132,0.01610884684991401,0.01965375007199606,0.03135146452255681,-0.07986903921145638,-0.0794005487847516,-0.045865161294675286,0.03473816852189605,0.11994128247705392,-0.06735284104641275,0.08133002865566416,0.14127655740525746,0.12321463676146703,0.08457311471361002,0.03301667557903842,0.06407616089114467,-0.032722547151212485,-0.010925906659929594,0.11284772195730358,0.009554377173920775,0.012229334457447755,0.0024110088917803432,-0.02606944771923114,0.05290025078615722,-0.023261230149613687,-0.019379442834658995,0.029331807739372686,0.022790926553144013,0.03810036995932324,-0.031642338198379714,-0.047694581970416705,0.026663799240427825,-0.03716345835237397,-0.0004216527400870791,0.006836753642088193,0.012246743001957668,0.008445801199751874,0.07263488583632398,0.04549178197264856,0.017248086988474194,0.018716519013489308,0.03670885283449214,0.005290624696909528,-0.003911913710988804,0.0010483884640261445,0.059205288391068096,-0.01618738909862841,-0.009834242956877905,0.1116320383534111,-0.0490760347212546,-0.01624871592363273
3,1.701942291022411,1.1515259571202072,-0.0030437174795719746,-0.3482580258235817,-0.35432294735565806,-0.2745891381838964,-0.004660229569028282,-0.4149996799344065,0.2858531248229548,-0.47789367636486857,0.3463171519915012,0.36476845173015965,-0.14850858792408328,0.33536154977172555,0.23293074577415745,0.20759136295596922,0.10845876633379074,0.15921151481193668,-0.1863738812468308,-0.03000514721935362,0.02223430645509796,-0.08290366355161409,-0.11260754349058506,0.15240634278575466,0.04906520369245485,0.02078629040349528,-0.3553056634130896,0.4746005326664545,0.05702476725985705,0.23256799328533295,0.1798283235560369,-0.09414740302650347,-0.014849508428112676,-0.19108642594369085,-0.07031352767340134,0.07910159721464396,-0.30586011272474073,-0.2174911542420057,-0.0436892334489202,0.275143603282697,0.11180217101620286,-0.2712239501001,-0.1932285063950916,0.03822920913293866,-0.10880998034964635,-0.02982029084305072,0.006650009213859568,-0.02743480901887519,-0.02176675751596121,0.052224333936294644,0.02568159117631468,-0.15484171000325853,-0.08492719416343435,-0.03997996953487284,0.01648771485272714,0.029466661071098486,-0.06475073598582484,0.043873806949905864,0.044962201790810334,0.006209435339291072,-0.210323522835156,-0.0015727351069991418,0.10537826461625334,0.030337972572838042,0.08821343502804434,-0.05716884047793356,0.008985745393967341,-0.01591650420175386,-0.06326522756681714,0.03489926113853717,0.07276262096068203,-0.10001116130978865,0.1387021772721579,0.04031201994754486,-0.1393234389311275,0.11464272297627469,0.11279304278927547,0.030982670108528027,-0.027357698735050947,0.03895641571582653,0.11904427928609244
4,-0.8429305011507865,0.11029037518468103,-0.15798020488846168,0.04943852240854512,0.027736323875710185,-0.0009892901079714084,-0.006720581621717334,-0.05567643050370484,0.024700856597635535,0.010895203451307685,0.19753152458858314,-0.11602272448998235,-0.00949555808640022,-0.11318062862867558,0.08203629976718055,-0.09541244412515189,0.21639840759060158,-0.06677393640823949,-0.03774606608606726,0.1704726488534622,-0.0517819216329918,-0.17632661793550392,0.14534901373432246,-0.05340484301068238,-0.1631728496755917,-0.1339310340745968,-0.17121212794436236,-0.17897803256450384,0.044963453900670296,0.08565691341227984,-0.06712456050846509,-0.05209494852073008,-0.07933258545897769,0.04239088569206835,0.15426989827738594,0.014389455936896478,0.016251760876979833,-0.02816959456064958,-0.22450307965508834,-0.07669559282326871,0.022589990744405642,-0.0681561748923331,0.03179442852994999,-0.03967518246653887,0.011351334120623502,-0.039174661195387296,0.03624848083468684,0.08932127295071902,0.03758726813324911,0.027409677793772274,0.0489907017072958,0.045692822942357346,-0.006023895051399928,-0.013418584663789916,0.045710543655032077,0.018725528174160812,0.02461442818029263,0.009514297010824556,0.029460874750915793,-0.043891017286051985,-0.03269453347839827,0.052263166192178634,0.07019623382852595,0.06284982449737066,-0.01913253431440354,0.023640172057510407,-0.03338676923886451,-0.05220615371810103,-0.009887495842311885,0.03343845272954631,0.08948779414821298,0.023238039847837323,0.019908110998624176,-0.02939324028715277,0.01742813302969938,-0.0059934889997621445,-0.00199463715629547,-0.01667922832881272,-0.07028467131851242,0.035840148318190664,-0.02233735346186129
5,1.1594576682000255,-0.971348668693288,-0.2817828710367548,0.24940034331325373,0.11676817111901537,0.16583619724670282,-0.1049829617123549,0.09598817769823269,-0.18315319113193568,-0.228757180972192,0.012522355571188176,-0.039640823236330405,-0.13892603642603957,-0.027508969678710152,-0.07282377330212692,0.08901440081730792,0.0986348528021274,0.0204936034876651,-0.05764481938501315,0.012766439581418354,0.0038226116194807116,0.012672344745237159,-0.041294703660077016,0.09092322450359898,0.03544941655221808,-0.05520039587895499,-0.01787253792111303,-0.011700182729022143,-0.04786652864129218,-0.006878288681878899,0.0033710178336479875,-0.010688924065626368,-0.002337030015800322,0.04333006720401415,-0.025881953584074656,-0.042740704051751115,-0.02768111176411913,0.01041813985236432,0.025584309111179013,-0.001528720041997271,-0.011598293327925675,-0.014370709973221377,-0.027673903281056133,-0.012424508855791199,0.005091108003794568,-0.057745945933670356,0.02273057503974533,0.021871821979261786,-0.007732247412241628,0.050640235041959254,0.04498642669564996,-0.005252034565294251,0.009899730135421062,-0.005638897269119007,-0.0018578840439005403,-0.003620417467425757,-0.036597442714880093,0.01951149157013911,0.005155760566712509,-0.0034656750416797457,-0.03531756328674592,-0.07430093818926496,-0.016709615766229133,-0.018316628034642894,0.022983738215764174,0.01584782514259827,0.012526278686270946,0.026058989320131704,-0.02454477684152325,-0.024040870341506683,-0.02717560875366889,0.010837216483501277,-0.0029906085783201037,-0.007092248840055768,-0.0033399841436640896,0.029084063471402362,-0.00936739073859347,0.007221987434514339,-0.0005478801412675457,0.006327887911514743,-0.022720343776796922
6,0.05332712028609168,-0.3531062046484415,-0.16624658554475738,0.01577105509752519,0.1980065051531905,-0.19540429664764705,-0.11433869458059003,-0.024419796613008853,-0.038980619237148954,-0.06071669352468578,0.05840816733177571,-0.1326219578167608,-0.09687020276179328,0.04438848137303638,-0.03521065630121897,0.04409134325919064,0.11618842146509939,0.04449384034225747,0.013598191993568971,-0.13153558715474142,0.18016506216352896,0.025363924559169384,0.06983863825083343,-0.06656881378482335,0.0054254590799390654,-0.16758294418635272,0.035894386819038906,0.035890781350988776,0.08777783152577935,-0.05084250462447187,0.020462190944409035,-0.13429002035689164,-0.06977367548671004,-0.019390589320984187,-0.039730594035503955,-0.04046615357647064,-0.06331230900846566,0.06440981003898909,-0.0880187565748447,-0.027663311604082037,-0.002939483403165059,0.08977600935706555,-0.030571406888498198,0.07085145362298297,0.035289694050546605,-0.05499552741923414,0.09217281213812967,0.04662268181490605,0.02051370785321067,-0.03514885446016103,-0.056078622406993905,-0.06325899562767687,-0.011718521351780697,-0.012101821315292626,-0.11790921134467632,0.020933029846658055,0.006394943024485731,0.03419162101255501,0.008329611211572233,0.02849415561865372,0.028780624334678283,0.030701060541194244,-0.011131688077654184,0.003792782087038049,-0.07727440613668009,-0.022075940004441758,0.002456153724094348,-0.00883412465396462,-0.07095094002014979,-0.020366960093168695,-0.01881867805155446,-0.003932925757874585,-0.04534099711638714,-0.04726813487869811,0.024921473580024164,0.057205741907081824,0.011155656671095195,0.016582711001081878,0.05272323735145734,0.026989467728198428,-0.024926755669713394
7,1.249744907545704,-0.8649058287642714,-0.1727951486455493,0.21670402819504705,0.1260875771050451,-0.19636491628154132,-0.04782327883060398,-0.052880947674096776,-0.026070086097382487,-0.13871825851763644,0.18216955136695123,0.07755516689959005,-0.11772616355308314,-0.015110822411652175,0.21059616960175367,0.007602141637396392,0.1470333091316587,0.004170462723553817,-0.27641307648978397,-0.17515264498357205,0.14859075204207442,0.08530995354184241,0.19664819128667393,-0.06469111709842154,0.08372908532916491,0.006933677172324111,0.06538747259580384,0.024223540689899875,0.18291931046545035,0.1179503135013244,-0.159590259462121,-0.15596139035834725,-0.015530782983525754,0.12892157675028845,0.015803412789409447,-0.1179621770279525,-0.07365529965295901,0.08518531513634575,0.10895830436763472,-0.06190650873454848,0.03494259619157092,0.10018597852228064,0.12097616529189391,0.01002874756210132,0.0428472282605834,-0.023660764513670954,0.13169191374749675,-0.030923808983340826,0.002064983846858997,0.05792713709997968,0.011002135267369817,0.01334847139627628,0.021994026570783705,0.032542131772617514,-0.01263253154935556,0.0561989109779301,-0.01986820760915702,-0.012876435226564613,0.02687764616674603,-0.03736358040864049,0.00266971841840046,0.04899181565450491,0.060072660635701665,0.031046466406997663,-0.07713328493565204,-0.012889365695112556,0.015033262210550966,-0.07848973575863345,0.059814515522161986,-0.07388700553561664,0.03388863792461373,-0.06928773083101843,-0.0017144457477450338,-0.031774101190199536,-0.023147439659610067,0.027207958428081384,-0.015775933399016666,-0.01997933747326014,-0.05200665681337926,0.020185344587000886,-0.0014718863792781394
8,-0.890015386184451,0.11090177255175383,-0.04944468543279648,-0.08897451206423392,0.14332594362275655,-0.09422840978620013,0.005714068336038436,-0.17977559185347278,-0.18024439359682878,-0.05442019484900055,-0.2863112643536013,0.01729435927194313,0.07132650281128321,0.20174142100706374,0.06558157973566545,-0.17921207895681035,0.08218274820279743,-0.07646838738164884,0.07796760212531509,-0.24402029731913458,-0.05838142074622664,-0.04289051608160595,-0.1348464862577209,0.05856273204187241,0.16042749496534967,-0.049951397553624544,0.12972653421571784,-0.16205480811014358,0.006600833553840003,-0.046792397608043844,0.11332926860641804,-0.07383070395793123,0.18605704815085922,0.12236319724281844,-0.027503280600022516,-0.13940677386488357,-0.022019451930920086,-0.08186303770026063,0.10650127436234014,0.03165275142423162,0.1137237425543148,0.043839741894102176,-0.03835479643522648,-0.06132952743598133,0.07658839003047144,-0.045059068539410725,0.015292016299036268,0.045062210600121194,0.019727628341151368,-0.01919374045788117,-0.0627887187064384,-0.025506937550869788,-0.08188479360583178,0.05247937064481035,-0.026166582041132928,-0.007965942069381985,-0.17031581056880576,-0.0064602735564376415,0.03325206296701175,0.01962636713566457,0.02371619422870622,-0.012792274569569441,0.011507051778391139,-0.01566213429893383,-0.033238103672558195,0.021485447667422122,0.03422750863674763,-0.008736113695844138,0.023626775637496385,-0.016038769583990455,-0.04072340407052234,0.051253860971356334,0.09352095250622469,-0.011928168927030117,-0.017818155791681514,0.03524598897271559,-0.04199155661678302,0.027503654970849497,-0.006315634309891027,-0.006215057733238843,-0.023882350827528813
9,-1.0338439195593183,0.18935308488074556,-0.040257483650520176,0.008768326546479625,0.08501877259216974,-0.15864817213562876,0.09632392147362842,-0.12371675024945158,-0.14521513336218722,-0.052086315037049476,-0.06529777060626048,-0.0507180338628361,0.2926212338781576,0.03613644591422711,0.17374244017574023,-0.2811923776664841,-0.10591211232243838,-0.06792400658911568,-0.12942642845448488,0.07342493811574376,-0.00323854595841576,-0.0815408937099859,-0.17723163904038655,0.15519167926880192,0.15615162124656448,-0.1168967417191822,0.14368124993097348,0.0685288230367467,0.1488665882405751,0.11382530608467727,0.062260560651463265,0.034125287822777677,-0.009396993585632339,-0.016633977195038382,-0.11869302755949067,0.049952454969104804,-0.07244004795530934,0.062241320933696206,0.05061629222939454,0.028062112736525632,0.020666442660769786,0.04856326387206967,-0.05485044350763419,-0.030660363159323162,-0.08279184773347983,-0.15276447340702778,-0.04524539562550904,0.13189337615759858,0.180413010449093,0.0032293464725420096,0.047397081383706734,0.06796527557033054,-0.0624385166363542,-0.18516273479842316,0.09505162121523272,0.04472933035472995,0.024582895977338565,-0.0099605377336802,-0.04427809950415264,-0.10126603981033376,-0.03465890054555995,0.0119101230521174,-0.014484454147946885,-0.08129566483821614,-0.04375856097271839,-0.07914461648773599,-0.17785024493348559,0.003321490306496092,0.1158028569300366,-0.09194922139654645,-0.11291475274223875,-0.03728377009269612,0.081415701128684,0.01012463099313845,-0.035949880678657294,0.038165209255303145,-0.00482268749776475,0.01731969951833642,0.0950552624016559,-0.11413750686153981,0.03370176637607197
10,0.5252892407617633,-0.4957348003921626,0.2450934230712327,0.03949782997899901,-0.006963891688818628,-0.018756751301084097,-0.18073930126710797,0.02691560100716449,0.04626689899673329,-0.10087128189083724,-0.04846332022131059,-0.013956202064168035,0.010325873168110287,0.14075855000968038,0.01647252711819521,0.0013206559083106825,0.12386350393168577,0.1564383284880081,0.07165956519829789,0.036459723511467645,-0.019661082125605283,-0.06715875847864647,-0.02453664051958954,-0.03515799889211944,-0.030415121415043597,0.046565933240192765,-0.015937363046103332,0.1190052064817766,0.026589999007185536,-0.04560528593939993,-0.05572112784991693,-0.055036032261654565,0.03214241056979345,-0.07554403327617684,0.004922896980714455,-0.05950113586978629,0.007297704885798719,0.12680138012363634,0.0399331289221955,-0.011733489008692595,0.03999699788782303,-0.022679569710400763,-0.020981683646633244,0.04525707877990001,-0.049527831941853805,0.01654953659456687,-0.008072298103259809,0.017930954745172076,0.02217737720967999,-0.018610693563304213,0.035069710831858135,0.013497417810473738,0.024794233808847866,-0.01931814019821862,0.0133387768134617,0.011179679489713313,0.02276420508925626,0.03396926178650017,-0.04900264010327943,0.016813690910511415,-0.007277694832684447,0.0145353906206312,-0.009906475413474633,0.0060824699154612485,0.03854375118767391,-0.04082038755545524,0.052211931737326044,-0.03946383787241942,-0.01535507400141062,-0.028414479431991164,-0.026841221566175525,0.008505206734740757,-0.019708234817350852,-0.018731910280201807,-0.014832910612817154,0.012021451407223336,0.005646176329034369,0.01143455273438972,0.08680264217553445,0.002765231413448114,0.013355062024740369
11,-0.8765061968084187,0.08756892126349952,0.40836533094543154,-0.05359441265792736,0.0883598185507613,0.09193928250309005,0.3972795440123228,-0.04685210956769934,-0.3246004982444063,0.38049765535339947,0.43644197241460864,0.11898526064077611,-0.13998279214717047,-0.09959598309575456,-0.22116324031308107,-0.11015293368887166,0.07649224079926685,-0.12096606184064763,0.08803737315664903,-0.08628583335109673,-5.523483804666751e-05,-0.053947809815827766,0.32718632432307176,-0.014203876470479687,-0.1700790144299252,-0.045926066614550884,-0.046718666654554784,-0.14818651242995887,-0.03569498127139385,0.2523295008686868,-0.24077541860234664,0.11503441444000946,0.3035726443354792,-0.10117455638094008,-0.10676770108661367,0.09688928258163852,0.05906550737496683,-0.19174466249478245,0.170290751612253,-0.19071057601039382,0.08607304067493791,0.004692648653907032,-0.1151362082390218,0.21337315365792847,-0.021937358697712576,0.2041329919937968,-0.042172094071496274,0.02425961091380897,-0.08677832490853492,-0.06782972126271071,-0.0852110441968725,0.07018591457696688,-0.14966725934518815,-0.028293770353724653,-0.0016596352975036446,-0.13711232642053947,0.11159986313197955,-0.03389477292483997,-0.01854154931648421,0.021352589690583096,-0.05468095032703775,0.03970358097077946,-0.026485994188982766,0.1306872961350568,0.06421986212054279,-0.08743337558859125,-0.12512471092673136,0.013045664844224883,-0.005753933593212613,0.08552709466078016,0.1178770694637424,-0.03801078916050314,0.0062177759549599445,0.038532522568219624,0.0408782588837995,0.023016971616227733,-0.06776985872548644,0.046818654898864845,-0.01283713325151793,0.0435143508577755,-0.08760182770037869
12,-0.008326321825875874,0.010302338036336622,0.5206589098132577,0.2611097598061838,0.06310238515015489,-0.10167565523344298,0.2076805464759071,-0.1874109827026833,0.1941888477630811,0.0018555938486990728,0.10775642924597066,0.03242414946516673,-0.06582318674802454,-0.12736411362698177,-0.13854175504087712,0.03729933101256535,0.07890029521756989,0.10803128355676639,0.1538513329795036,-0.06546037989450854,0.07174989063724756,0.13626036237554076,0.18412828565899295,-0.024773105564707496,-0.25601403318735444,0.09252130623108212,0.0035716258750419713,-0.03962268624650515,0.10311601053440282,0.00040649626624226045,-0.00907256317600915,-0.05923380544992939,0.062246103779938645,-0.013539078639164882,-0.019969091766059453,0.07023556294978242,-0.006648987647089684,0.019687416742207774,-0.07372042463799801,-0.03578346078035983,-0.04118062427037361,-0.018143739431935348,-0.002689844079851841,0.08176137063718451,-0.06561769255953781,-0.034372070702531024,-0.062003080706479065,0.06165042709610791,0.03546138068597787,0.10520992514104743,0.17669546946016132,-0.020689690343408215,0.04157995547241742,0.01029133660724433,-0.012752594993202858,0.06953486265784359,0.002252417791170854,0.08931130376343524,-0.0593199851961391,0.028230043474681124,0.05225029845052138,0.03379034227293005,-0.07221229684105343,0.015402035008851555,0.04862693200699871,0.0029898112726601425,-0.06362335674699915,-0.04443568105051973,-0.028442411580869176,-0.001126383776525573,0.008306190611817813,-0.007032612797120034,0.015445754143232796,-0.008625857094640766,-0.015496383773362899,0.07282191261813013,0.03787286481248973,-0.007774468062779211,0.06613221490717434,0.0159675219695337,-0.019160038780606785
13,0.5227582808772743,-0.26714504605634765,-0.008190864741586734,-0.5174922661814706,-0.019271006362928007,-0.005376005292465458,0.08451550236795105,0.10068298360595761,0.0719483278504284,-0.10077674171940772,0.276371323139065,-0.10624250652256022,0.01500931291203866,-0.0318936544375825,0.1108853515553519,-0.0899185266093246,-0.14407699756156261,0.15781432623473843,0.047202599410194834,-0.004612311061534422,-0.037767134734512146,0.04269264443712825,-0.1222457857616517,-0.15541593489781289,0.06110161046804738,0.1415679846742859,0.02708624774471681,-0.16314709645460657,-0.03107351363259842,-0.015147295780928596,0.1642999772498829,-0.10249739066532662,0.2953600110717,-0.10688471547512261,0.04257464504199075,0.09553483554142793,0.15726380731014253,0.019103918303350925,-0.04509301976628075,0.07726273548144952,-0.10498625420499882,0.018919072750753455,0.019989028952956605,-0.044494221196639386,-0.03963024511194986,-0.032964514817653,0.2506443306789969,-0.10939286051147165,-0.03767606924145966,-0.06880820880108586,-0.0893842511201995,-0.11837647656372652,0.10261524711956438,-0.054230587960458904,0.0669271557035698,-0.12880857789370653,0.032413250411943234,-0.037628847240710604,0.14521691164151354,-0.21750384903158712,-0.07325000378057955,0.08421613904811537,0.05851222480431363,-0.07340881236183876,-0.008321713264810763,0.02417165180175302,-0.03870213172207947,-0.03431630997405282,-0.05827703442633692,-0.0031917981737116644,0.0012704979469973772,-0.018137676520651624,-0.09823193411488747,0.002131657233561417,0.011435123385177088,0.06345923464232149,0.04166335228885433,-0.02640292540273087,-0.01553184649572126,0.028462450871492705,-0.016723580162914177
14,2.3638101613318008,1.5168519286249484,0.22264015502449094,-0.6876306179714577,-0.40945331993910533,-0.019697700970390707,-0.15703022323596447,0.00898840074754857,-0.21789947094305695,-0.575945372254814,0.2921252776094124,0.3514865675753355,-0.1423034094030157,-0.08413590124260394,-0.08055050567456688,0.13188312923027978,-0.11814074191665204,0.06756049147780592,0.49396251506342753,0.3000852657296734,-0.18387664196821818,0.3303153856337144,-0.25672267802721277,-0.09655136785943387,-0.21442544794920623,-0.12203202414451472,0.08537230523059418,-0.015997354568629284,0.10352682983374131,0.031133824952595923,-0.06907882775517206,-0.004031463567298195,-0.08366236243158896,0.04312580811994761,0.057270592647073376,0.03051256659103671,-0.13748919583870742,-0.12397021826078146,-0.030031332354948054,0.33161868140012524,0.5404647407471459,-0.29900935928895384,-0.41467654879967963,-0.09636061231202309,-0.12019799900563427,0.06693586723682558,0.03347060622695223,0.19689272531082216,0.06690672717531138,0.026800683595187898,-0.12337037932859997,-0.09623731278353255,0.45431299236054123,-0.15757974591265364,-0.10712988182476481,0.06402947942849732,-0.04959146655956291,0.12130683368548087,0.10602772012601074,0.07615501263345151,-0.27586448194389407,0.04428395964829308,0.017362368656547427,0.10061683852036069,0.04206677686491302,-0.17725790433011657,-0.04035234780653061,-0.020331294572846284,-0.021780994421811764,-0.04107739389465372,0.02848342426346697,-0.0874589711587637,0.032304876195098205,0.13141572682686603,-0.0747800959895877,0.06160843938443503,-0.02361613498288197,0.02596115659015188,-0.14676270287493473,-0.1006652541126458,0.08445823263124108
15,-0.6104697112691185,-0.03613760808157538,0.9420922086662568,0.08233543216025732,0.18338239038346332,0.07608332546787851,0.11529604504895682,-0.010192144913259912,0.11896022296290745,0.01002855331449697,-0.2888027438584876,0.10364915532398722,-0.00659513502518854,-0.004990431980953627,0.04929325724900627,-0.1605865103127738,-0.19943170587395342,0.01169231626977359,-0.06374809018592024,0.27607616483560204,0.1168401510629201,0.06430260577565551,-0.06372638198861408,-0.1331904240933444,0.044681241967914925,-0.02337736345738613,0.10673383894880688,0.1735658344860104,-0.0447934016224264,0.020320225490362567,-0.09133321876722061,-0.00037325192336206076,0.00025341653857720634,0.08288150564770659,0.05995263303905116,-0.04307348624815242,0.0028466889190309277,-0.10027982007123684,-0.10820206690439296,-0.12895396424923544,0.06844502976663687,-0.027782789739800407,0.12238669080763168,-0.10647569357513637,-0.1126250156832323,-0.0553399194944323,-0.062204587607128096,-0.09103695630141287,-0.12690284744909452,-0.01792805220430175,0.04833527952872901,-0.019228649766063276,-0.04205982084341575,-0.016408585151269334,-0.06205502610801338,0.1349645515445281,0.018736075208331246,-0.01898901785106669,-0.08839005108635727,-0.06852501260174655,0.024448662303982766,-0.018536247517564046,0.03096923640004925,0.04531853184714607,-0.10614993366197875,0.102797474652404,0.04401834813155675,0.08731059106088025,0.01232573723503727,0.02811061661763505,-0.08953050908715887,-0.03551541738374315,0.039321203255369745,0.04344650097925009,-0.03062156402844553,-0.0192164834572673,0.044695796296747976,0.0043544199973926745,-0.05953365310973502,-0.01293785008634706,-0.04313943802260937
16,1.972651285543553,0.6188331888194375,-0.0003552511340812503,0.2883873013043219,-0.21630099737119163,-0.21447526526279329,0.22394934199993363,0.017979788761695693,0.04565830826382336,-0.007971816644097855,0.047287826260553535,0.01886630141311531,0.10679137385248845,-0.02805846648841227,0.011318931566928,-0.04377457278081384,-9.954851605122899e-05,0.21031472514334845,0.08461441088282182,0.05860439566218007,-0.16730886761454317,0.012588357824697385,-0.04510094454132689,-0.0336206119296904,-0.12651842696349075,-0.0014882741468239392,-0.01426580276605141,-0.05400560361125754,-0.22072819085274262,-0.05804454810859665,0.3073089764286772,-0.055631370889613736,0.05157415396948505,0.06248639211797693,-0.07746170470469196,0.050990309033391364,-0.13192506463996212,0.012445330575982223,0.03318717598805479,0.019107048678535445,-0.006531766073159255,-0.08776717787910632,-0.03274550902090237,0.09857761146574094,0.02408911707684203,-0.052164786412319725,0.08062147981894187,0.03792444496532549,0.01735763083179493,0.06939376620830706,0.03668384807734512,-0.039942586410855664,0.04806899855550893,-0.03423087543870079,-0.04603220045987143,0.031781536969476394,-0.01472400803671136,0.10611902219005061,-0.031429315948516404,0.03525981388572094,-0.03672788273173046,0.18236971035016858,-0.037911576754384266,-0.020891769365940577,-0.07345646020974807,0.002997452811456186,-0.04505076335525633,0.031511265373543866,-0.017511939395191613,0.008712277470061211,0.02504865698088478,0.016074405485705066,-0.008789152587229562,0.06607211205090219,0.015583777692829337,0.023517105314281028,-0.026979470930702697,-0.055552554443279695,0.012752969654716053,0.029878463786996715,-0.02713917396680294
17,-1.1643575916013176,0.20897264060276066,-0.25927236062088527,0.01810996257014786,0.04781978693977878,-0.23063159889931922,-0.1453964294839118,-0.30524485789592515,-0.2051377962567071,-0.1773819036689758,-0.13269766354471257,-0.01960610651021442,0.19606567239572467,0.010802180091409335,0.21466765489541131,-0.09986960910398354,-0.06686384967049001,0.1277611120863471,-0.014148132039850452,0.005952647287343411,-0.04060913697102481,0.026373146286224152,-0.2008579887099103,0.16436061418897852,0.11858458082328191,-0.07274259248650332,-0.05783657146653699,-0.11020051738707742,-0.10105800610901267,-0.011411864568276213,0.046848729566727296,0.15206945911607225,-0.07694297453489879,-0.035809400302071644,0.12848372348555834,-0.05333613189683144,0.11328180096759628,-0.1649507798653994,0.014104917161652623,0.013400946162463064,-0.050355384556445656,-0.10162701549451665,0.10580621289641291,-0.1056233381722269,-0.021035997729474096,-0.019325436505374362,-0.09011978240768209,0.03466542898517982,0.021603310331822733,-0.021508157123836646,-0.18800185389033222,-0.04720406344868526,-0.029875156637073717,0.016203036002849548,-0.10911857622947867,-0.10660319829085886,-0.16784766443546772,-0.040504512698829875,0.12386567812276372,0.05886429387785008,0.042624701482200995,0.08626531810658705,0.035968329108268096,0.12982105288283965,0.015822691722950425,0.046574183136170746,-0.036571392361031914,-0.09016845268878675,-0.08014378363916233,0.0962550463592784,0.08105574471878033,-0.09407207917770827,-0.025602491908069864,-0.04560908435955623,-0.019827556567565758,-0.008998728216330168,-0.06374856910403173,0.009587829019625616,-0.05379931043700104,-0.019846588461164986,0.011409339702710375
18,0.7118019707424967,-0.17375067904801578,-0.14852169151421987,-0.6646946821902587,0.08075752793307367,0.6003131768511807,0.4180002965562019,-0.00847370618648619,-0.030819980260987163,-0.22993261818457303,0.2969781623954808,0.1663337128733306,0.2781956670747896,-0.2992744853480992,0.2057431452004683,-0.3786523184695666,-0.11158360625420198,-0.029888136216751328,-0.31796912489581286,-0.18776333946678853,0.2714075491994701,0.12137703012497257,-0.14599363563133558,0.15304881494729253,0.16964085312258598,0.23337695063842642,0.08259904493918342,-0.017981338114626218,0.1311284832152367,0.022588818579988495,-0.09122463067954764,0.0723781792165546,0.0832056506297464,0.15880669505137887,0.20090440329821724,-0.009425798593162732,0.21936020014353513,0.1163812048380438,0.0042808905316943134,-0.26530726141762084,-0.05142356230505558,0.11561946519350876,0.1340605553444475,-0.28549504014071897,0.16894298306382538,0.09663619073363715,0.08262829304943825,-0.08307798403351262,-0.1628711019517197,0.060652000443495585,0.008543072194280497,0.008734315664364705,-0.028470919161408138,-0.06039918599518556,0.0702889032652242,-0.07063650860513657,-0.11376915132886486,0.16596381258973594,-0.052278070115502145,-0.023245243786920774,-0.0344557279614444,0.05170167928090209,0.23047323874804207,-0.03851769996079995,0.023731306321956448,0.027218564393186345,-0.038211250318095705,-0.18323742425593142,0.15820029178395742,-0.1433324436239173,-0.033001724164537095,-0.05687390214709341,-0.06197584955503857,-0.043443877041027576,-0.008817088916340404,0.054604885372321964,0.03498595111349978,-0.0410007504792802,-0.14464918264974053,-0.18551799464666954,-0.018857432377730222
19,-0.8108619949165852,0.08245353705844538,0.24156943528099373,-0.15942986571969908,0.2943510096609023,-0.35970633713737205,0.1634650308440305,0.32415906788872295,-0.15977404584336835,-0.06709790179523754,0.14719195459428194,-0.13315783041813148,0.2908400147187441,0.10399307564899134,-0.007536942682287333,0.22573570116472677,-0.13268572011837376,-0.20087663608339934,0.06181393076533972,0.03936878853270539,0.019578534089112542,0.011578105836522402,0.007819823361135876,-0.15145506783646165,-0.10624743396182451,0.08566426259019576,0.010894135312274525,0.09144871034978753,0.02290763163826691,-0.01024927863750621,-0.04711839440113152,-0.14981404946041726,0.12707050684782134,0.07936330746266221,-0.06311487226665836,-0.006429421924019913,-0.05092140747361295,0.07108327787342432,0.022986210352757393,0.07812080493802502,-0.07381193165038293,0.03109510838282755,-0.01377540126774292,0.00591090313712363,-0.030248772071484936,0.061851957047492835,-0.06366831361398538,-0.08780373954847656,-0.036102594218853486,0.021246655774125416,0.013604206264372287,0.05468914076790305,-0.050105965783753044,0.008755720733915059,0.037191143767130355,-0.022218887562683868,0.05111252539227131,-0.05123153972971524,-0.016461735290709465,-0.011342898538633498,0.0587555243680691,0.007653482688806,-0.04317122225343802,0.021568394691844142,-0.019814174408495693,-0.08937321502428472,0.010465337064288214,-0.00947697634394332,-0.038262166497949335,0.012955451223819638,0.019431459266381377,0.07324005453218657,-0.04969799087397516,-0.01728099085244129,0.047160644597676465,0.03226666367943598,0.019024981280330335,-0.02729617970144272,-0.011185319955696294,-0.01512229343665603,0.0058526342761644305
20,0.12975094619017213,-0.4682844464377988,0.06810604167173288,-0.023972850335172356,-0.3022094059938288,0.1364331619633496,-0.12597589464931472,-0.10655275839936418,-0.019875294072927888,0.006194345406526805,0.1988528276113847,-0.0913307731798946,-0.061765903038822324,-0.05570157076787699,0.0397132365587439,-0.007558165986105126,0.02429287261974703,-0.18309768665385953,-0.03286774014336101,0.08448902769191843,-0.06634296729934056,-0.05032246922281733,-0.054425649549681335,-0.09776889587199396,0.057961528606879885,-0.04741070966487697,-0.021170497145908546,0.008191117993777966,0.04652024747641533,0.024024788510979653,0.07819820682463037,-0.02243329835888557,-0.023264229679778484,-0.06165212898967476,0.04649931291047467,0.006717809979785936,0.011846443814177389,-0.06857947110421495,0.07017425180523006,-0.06171083292322591,0.0007087933522299143,-0.041966607717228356,0.05540585877298455,-0.06555007583138615,-0.026449117498955933,0.06142890290385076,-0.10533811540050092,-0.06842243286543347,-0.008182349629307055,-0.004379292499766391,-0.07160095031743542,0.10786339868216459,-0.009022596201872275,0.02066837468148569,0.053809076248062505,-0.03869583166482563,0.04811113028556898,-0.03402805208112192,-0.07403560793926743,-0.04002384433258123,-0.03571230792813385,-0.003491766113947957,-0.002850810437512467,0.04781812568390222,-0.03406003809495895,0.030725668561471773,-0.02529415915975315,-0.0025860730796023633,-0.04056896429851831,0.03111818015881347,-0.01627708043592585,0.030030946168156065,0.007066812361146683,-0.03977489070066037,-0.0042365362039901875,-0.036282060168492086,-0.01291040460747126,-0.03741328620962707,0.018314211559601397,-0.02131595709503598,0.06342053099646502
21,-0.8183514223380446,0.17692252072630016,0.8074736861241189,0.479052282287595,-0.24538227672089846,0.3174094445033546,-0.04059048697437919,-0.15909178977390434,-0.2137189557492033,0.1403498108775062,0.13504572764299713,0.054810283506623814,-0.111750726696971,-0.09291645249823267,-0.2016616307134495,-0.08223780682134564,-0.0024899850264142338,0.1324006798577854,0.040015982015230114,-0.1347428160492733,-0.03208982162132109,0.08341859812181981,0.1793082928786852,-0.03125699135932395,-0.14025252004094435,0.09884218647178862,0.05539509981813675,-0.19573747500892313,-0.04664773124101505,0.29363425240921526,-0.1896119313372691,-0.11219843308371677,0.08862389254676095,0.06983151001762038,-0.08175363663645814,0.17675980230554592,0.1115210780433136,-0.09784670563680253,0.03392449533153278,-0.1213970606276407,-0.01915434488522788,-0.02892488717147132,-0.0893398750285857,0.09470824260200711,-0.038601633599360974,0.02885716606340529,0.08254338006065669,-0.14358684470461555,-0.06929615189613103,0.10200783488988391,-0.024850257486347047,0.026710867124316116,0.01366014669374641,-0.005974859683752553,-0.046642134525958785,-0.009691397999830762,0.0007864801394392697,0.11961691517950031,0.012730899177450938,-0.029773798301791204,-0.00647755271493092,0.05010095539327466,-0.0925946949390951,0.06631299445196885,0.015973758390374286,-0.05928271469855616,0.03337242977857954,-0.05114794980022618,-0.058631129330912,-0.018169566596182612,-0.036290071895364755,0.033568687453924176,-0.02271407229771862,-0.013727882114288065,0.0038968665894026887,-0.03286824119150721,0.03989969569474733,-0.02327812905745691,-0.08096005502384639,0.05083496157652685,-0.003024325536834561
22,0.7695286738605037,-0.7836294414939009,-0.14577751777014425,0.13878777204910292,-0.09877605208894029,-0.07554097676549935,-0.20020614019137012,0.1785550590840236,0.11619613091393656,-0.0005294332230833086,0.052959811111860176,-0.0799984501468581,-0.05047270045338128,0.037708320426295405,0.047729560361282855,0.09727471647598594,0.05728864682844329,-0.11134682269019791,0.03785810466648823,0.01059308192582101,-0.049472914996234435,0.01740275062379795,-0.03107238909428058,-0.0023488145597921244,0.03904983310974822,-0.06241866975684195,0.012113020803699564,0.002655080974932911,-0.031013481753853836,0.030073841568548938,-0.01819991302167149,-0.04697803043155332,0.024785567158649303,-0.024839019476975522,-0.021298398641307406,-0.043744397611843906,-0.013119935605328962,-0.0020385926062554964,0.009106747268578163,0.012553123751039617,-0.013204361059540582,0.002806876003826115,0.035892818094371226,0.00722530568747672,0.02917109121496354,0.04871932665203482,-0.0011365703203062765,0.03879453457796285,-0.00789857879537884,0.06538264543123441,0.012241823310845716,-0.008372180317255853,-0.07373081395630567,-0.03810116862530848,-0.14025227975996818,-0.05261815490570355,0.0835672484936847,0.008295561135322227,0.05890764408000074,-0.0019874124799405205,0.011873982132373095,0.003692019539233762,-0.004791431446245821,0.002214907676193371,0.013640585586392268,0.0035243147244270107,-0.027509654320948953,-0.06469728987385394,0.04954220019303952,0.05481097244217252,-0.05119315975362256,-0.03644676282140755,-0.007815582761743186,-0.01684026470562175,-0.02085351690235181,0.015649811339715745,-0.01043928467284261,-0.027823257335404958,-0.011365832266817394,0.023085123609875455,0.007211168280727748
23,1.9880388121144847,0.5713286530667177,0.4697850336728126,-0.2673159415013674,0.09813986436057318,-0.05939443978812377,-0.15925167334811552,0.17979239462609148,-0.37029630004083325,-0.03281983452153981,-0.07343314373731057,-0.11595367396124859,0.2337128047454443,-0.27428760300290017,-0.05721797192018359,0.1604848906107231,0.013237751197419975,-0.010293507291424482,-0.043387780928098314,-0.00017929737829196562,0.13514667535470543,-0.10242669351832831,-0.24945976604886688,0.03405931714671235,-0.1608756040369528,0.0077217845543243475,0.07582550921419472,0.09792217573153347,-0.15015976975225948,0.040225128802256115,-0.000881588477037809,-0.13754608929549994,-0.014706008620378833,-0.1592214070145403,0.17107007447479833,0.13952025356657138,0.10672006257423837,0.09803544452379367,-0.0299597340900165,0.2154388446724436,0.1226447161235624,-0.02375066300082533,0.11100444452247052,0.07746310779223757,-0.14162376822459613,0.01670560191403816,0.13112532176451047,0.04897924581793749,-0.09035336320273878,0.05730441391837273,-0.08888480997085171,0.01769985646253024,-0.014873267888512254,-0.029206295248431397,-0.03288942967726979,-0.05378533534148107,-0.051316206653838764,0.034350683293465696,-0.0862541094641264,0.08355334088285125,0.006619711385416077,0.1472753327047617,-0.13657355666302548,-0.08492903663133416,0.0066201967647508825,0.03142634746229714,-0.05152272811669505,0.029237857876028086,-0.046142545716275414,0.0933281828077819,-0.17103853684642012,0.08688811523313218,-0.016722888598724093,0.06100396025890007,0.1503819326982108,0.03933134334666095,-0.06798297143869017,0.016276091544694653,-0.05566324391929557,-0.0011553234053886666,-0.06339779454487705
24,1.0381668734508551,-0.8078805568213734,-0.34121734913394874,0.2841033922821397,0.3903080888508389,0.5108121118043353,0.11084742935759438,0.06503938970671941,-0.3953711068528353,-0.24500084657189555,0.015010638252974,0.05531597657814103,-0.08578736376145565,-0.03664382379255934,-0.168804248458175,0.07569896823984892,-0.019196046256065837,0.10752248119263293,0.10270940991354624,0.16318658070254619,0.09868615644190341,-0.06642148520367838,-0.03339509597791093,0.020863314367991406,0.042244130441015444,0.04777133434387769,-0.0857268414901857,-0.03835126837490835,-0.03186491669100158,-0.08593257447253487,0.007878796855926252,0.02981393567407927,0.04733356858190085,0.09856544738626019,-0.008463533035798053,-0.024672810307724096,-0.01939391161741236,-0.0037222534990503427,0.10574619799287406,0.017974458835076618,0.031922583397826956,-0.007180845693771019,-0.06759163437237702,-0.014359292246080242,0.0024397456678085703,-0.053848869984318634,-0.044356815997354,-0.03246017146978025,0.021614544494044843,0.0006951028143282942,0.06772642268936517,0.025041757739442873,-0.02413863234344264,0.06259878829015107,-0.02352701886588742,0.02827450080784068,-0.04639635437851017,0.0032550458422007014,0.05970841800336782,-0.0444763530719197,-0.033724880621791166,-0.05875632869481963,-0.005673990122637796,-0.021555852615585937,0.01171012205293643,0.026185212027672825,0.034559359772685684,0.029174274407476542,-0.005072471692309277,-0.00244349979223717,-0.033282540461614135,0.03318725050863243,0.008658399187696786,0.014210618072436934,0.005086688107710991,1.3010695557431732e-05,-0.008637934651645415,0.005197899249051543,0.025402882001286528,-0.024270961871986692,0.043454856746829564
25,-0.7498321073387842,0.1753186307839215,-0.11202700348329253,-0.41358977779118056,0.07283234043984792,-0.004142214102579127,0.2544127287429334,0.14440023204039734,0.03719641943499972,0.24285506607475843,0.07118918013462198,0.20017178227580024,-0.23589581642548585,-0.05297554906156513,-0.028208561336016853,-0.08270339228022544,0.050595009531321074,-0.036184158404101975,0.03784906615463307,0.04667318398638427,-0.009770730449095828,0.06491340070846661,-0.12116865909349565,0.13741075219567916,0.021704404479054834,0.038779241846024645,-0.06526445379197489,0.027459920604836166,0.04195822215654512,0.09894759526632578,0.03229232760997243,-0.0990534973467857,0.0967244349149066,-0.03570194682082698,0.022239050839997387,0.038912324292023064,0.06525222589262863,-0.10911433558180161,-0.026963654255068917,-0.02895277531284129,-0.0648016256305901,0.03118755816279224,0.016760956969558996,0.01699016072395346,0.12612160442565576,-0.11433464905338316,0.06172637127560513,0.030231776982907747,0.0036432782413929853,-0.04489217606541108,0.024297529028157922,-0.12727597944881092,0.013062329218290203,0.073980319823812,0.031544919426814914,0.022531376699936746,0.00863945668920241,0.05341153066714468,0.07041825601548041,-0.02282605891258616,0.05905368355534248,0.042100287826148414,-0.05502183611962788,-0.04270037952470678,-0.07013616074575639,-0.09047581833565647,0.013173215279276309,-0.03894957028574093,-0.02302293774421395,0.039482771066607796,-0.0021619871924532202,-0.0003607844909717873,-0.024284433414670445,-0.0066473225789734774,-0.0005084224943088929,0.0939298583940497,-0.02244282850442281,-0.011988451712053757,0.0752604930282097,-0.0626566702578675,-0.02691181011203108
26,-0.771072597140456,0.13045305148585867,0.016006221714635224,0.03778093082242843,-0.014374131121895983,0.004083033895023654,0.042422202060717944,-0.19804961456709613,-0.1225414488567814,0.16424457468620546,0.20813125812993016,0.06179294777770702,-0.10102590166128834,-0.12547084191489738,-0.08151567726909331,0.17062777947315227,0.15178986228691516,-0.11335181233493861,0.11310911232101961,-0.04828125999698068,0.013863206901640451,0.08218236494307507,0.06573742438098627,-0.11050433252331751,-0.02197202924214356,0.028556793412925368,0.00450012744045227,0.0378638629533296,0.03496736166870276,0.030994106704818326,-0.017797535475330802,-0.06919842624318481,-0.05122837611014943,-0.004128458880422611,-0.016920363915491534,0.029284410058615703,0.0611587418499683,-0.03744476601083556,-0.09136468550887378,-0.04435907908758034,0.0033836226366598695,0.107002646725672,-0.01594946571937018,-0.00598306155903762,0.02806603140748871,-0.030917617358883244,-0.027061946542809467,0.07680769078750023,-0.020979284280508784,-0.007415376509223424,-0.07460584116922421,-0.09078746005340395,-0.028980233335954366,0.0005076152392199965,-0.2575080400761905,-0.05204532054305259,0.10406730201884046,-0.0665623752380159,0.10342868089436942,-0.043198255330837314,0.10281993134098837,0.025164010138471422,-0.008099221477812855,-0.04748348223529326,0.0883360728893265,0.02968482355601209,0.048205253533857066,-0.1355451559629761,0.18599713223402592,0.04025479962088035,-0.12093347040055698,-0.07587067535922598,0.06495162908591834,0.06999964944926235,-0.01758862482266696,-0.0069468029293786055,-0.09872924536917488,-0.07681694836995935,-0.06282623574170725,0.023295519430781855,0.057564337411143245
27,-0.1723592007976176,-0.2820894139742783,-0.017035872040535607,-0.05203103195800419,-0.2489517115957988,0.1184268180873645,-0.06268836373197012,-0.15203990894243452,-0.05751008596558515,0.10466215999225674,0.18371605903427954,-0.052973555240762076,-0.04045406368754487,0.02387098480538897,-0.06863750682009717,-0.07935658561872325,-0.13149766490174167,-0.16326369488576445,-0.06424448332717354,-0.029042898134429153,-0.11987535031791352,-0.07115232596593633,-0.021356704056352274,-0.04681326676678319,0.04427360107454861,-0.007269591284398387,-0.07527724259605474,-0.07852619233978825,0.0639291994457161,0.014163508331711828,0.023278701783544745,-0.013013871071523289,-0.03489541063823837,-0.042391659718162764,0.007575942144074523,0.03089020959012559,0.021916163626441172,0.00030971617878011455,-0.045443933502348634,0.04773730137278475,-0.10006148542400255,-0.0704502366365221,0.04489174598902617,-0.07852098452015771,0.005302796348735629,0.04434766831415277,-0.002469107325273526,-0.01659872418152431,0.014910215869102853,0.033154009134813,-0.029707587082239768,0.06619392466757941,-0.0233417321108727,0.05165522894215543,-0.1535111075468674,0.09012969132746051,0.0005486974075496953,0.013811663490968603,0.06733242304515977,-0.0077290041218350146,-0.009828480040345146,0.03354379292419582,-0.07131867169011424,-0.005238797214672571,-0.01666090903801519,0.0413162376027359,0.13375202344897308,0.2305179024572682,-0.10216654962426179,-0.04808336580043569,0.1166031316241366,-0.030203137088102603,0.02318274872834433,-0.16571517687017767,0.09408402118333177,-0.016130383548078532,0.12063950586895249,0.06289132427016177,-0.0268596958121052,-0.07890772170566336,-0.046469508731711934
28,0.19573383427695298,-0.395491627407925,-0.025106507704410492,0.014507570441987468,-0.019551821019720073,-0.15450549826977575,-0.10235369169058417,0.016207774564674492,0.07500377434098655,-0.04580089399336083,0.11348065768007877,-0.1136534066047821,-0.011543100756050978,0.2024873253068007,0.01212231300513161,-0.07875151327918897,-0.036922306811145285,-0.005542108875661953,0.07013506188925737,-0.027822043957527905,0.008183049113238946,-0.01706619860215653,0.005256189411958921,-0.1709083428648687,-0.08109987743686242,0.10466473956384431,-0.05564147794311013,-0.05753093529587809,-0.04153804778929286,-0.061695612901243535,-0.07934909967827024,-0.013123562601453568,-0.022649918548211426,-0.04493133338288738,0.0921114874945721,-0.06660220682470443,0.007610838770483717,0.0738600173969319,-0.08078182267172243,0.03767953150289061,-0.025047464295879545,-0.06547100859563854,0.10398499697810619,-0.1398468685990645,0.014161326363089073,-0.04961121725628355,0.04719211921050916,-0.011962984746394498,0.013039953620783095,0.02221970833968957,0.04580268277473507,0.04374032081746415,-0.017873043110269403,0.008478320380395995,0.02774286306804021,0.04370804361148182,-0.06179576042266609,0.08296110996718442,0.01707911293294422,-0.04095887078973781,-0.08255401415924993,-0.00514323200185567,0.005875056542648729,-0.015297752840605902,0.016030908729280084,-0.0200475368067632,-0.006862238916741437,-0.015891147310905723,0.005246186370864843,0.01676649062760307,0.020758819588686594,-0.02638350234454893,0.013078729555187452,-0.05823870128920688,-0.01345376529410645,0.036865984127802114,0.057375379025077985,0.0014212948796817639,-0.04638821763411104,-0.02247308556103392,-0.03478016105167215
29,-1.1510567110984737,0.08764441376305232,1.085238558857899,0.8782738962019103,-0.24431143603096359,0.26424043428650684,0.17011051297061097,0.26591597143017925,0.052575061862724336,-0.009132205701459619,0.122044727074546,-0.06381466326747365,-0.1988698317970508,-0.010163309055574122,-0.04906062537986187,0.08839162043564427,0.05596931032258866,0.09583228346346875,-0.0013544698778566824,-0.16329183818025833,-0.031573541705525725,0.005223371762388492,0.015648515638147717,-0.0877485884181637,0.1041902041789795,0.0013534868338803267,0.0008218434778638409,0.16923823719494194,0.1323974982984594,0.04526258766037545,0.06188783893904609,-0.026676360527627146,-0.06365949529970766,0.05781761095695702,-0.16574466020887513,0.10403014023018788,-0.012965626860362093,0.0020729991237145758,0.035359030587792196,-0.04869812303645241,0.07652820165893039,0.060275672458169026,0.049428995665670744,-0.04798938496813475,-0.10845104843690719,-0.09621903650843777,0.005102336160205741,0.06734432534853517,0.0015179917861035729,0.08349717828149636,-0.13528786447874913,0.04897531944868496,-0.07399245395990178,-0.0924473377203515,-0.022616900207145747,-0.17653643689803317,-0.028185811089618897,0.03750638822897139,-0.08157981800869925,-0.02494328463028314,-0.11950343781087198,0.02544807533472375,-0.01852862013346307,0.09959512302428394,0.04428106895412829,0.06680422257303921,0.13297552665573145,-0.007080568896499363,-0.0702679010330506,0.11057633028523638,0.014832067465293608,-0.046499883111991935,-0.06899403668922344,0.021382479343372483,-0.037192963720803524,-0.12751652416702652,-0.05346332941086207,-0.06511935655416375,-0.18477500773638925,-0.022494779233072217,-0.09783471522765216
30,-0.20457476658997067,-0.2440114092138491,-0.10322645481718018,-0.21381907355448604,-0.1907262766409808,0.08651694722616843,-0.02224751872283605,-0.03771995336734717,-0.015178800562895363,0.20033292679978468,0.18986822017751903,0.013078889874831736,-0.05343235457529671,-0.0776535750210533,-0.17033448275352767,-0.09275679545296472,-0.001428744377615434,-0.05065138455826257,0.06478277245818362,0.07103878258059496,-0.06931960610357814,-0.12458875179879332,-0.03695901809293742,-0.18175684800962036,-0.03225121446451464,-0.04547262556143524,-0.056593953213279195,-0.058204405621079466,0.28677386071275157,-0.06522344707202676,-0.026896583821730914,-0.09616868751443594,0.15713317496351945,-0.053273840864913685,0.011484829768501485,0.00013257993669363527,-0.07893761237227555,0.02761845930622124,-0.033929446572109785,-0.0907974265006913,-0.017728850082241863,0.11001017297980714,0.05284703406690103,0.011280692829759943,0.09636622063240151,0.19087634222899755,0.007688677669002806,0.015044473495044942,-0.02093276854084464,-0.03206388596379045,0.043080762362027875,-0.1381661447845878,-0.14819231345778944,-0.14897884375860354,-0.08443740756066068,-0.22607697172755958,0.012693480266972161,-0.07427043732443925,-0.11579733440099228,0.08577943887336238,-0.11286099944168412,0.05864758575251643,0.06496000261620508,0.11258767353795254,0.032309051375783236,0.013631738736212637,-0.012047680588548024,-0.03375919010693713,-0.027153608895421826,-0.06010101208219297,-0.04467851020610433,0.015408442104944405,0.020797946461898906,0.0021493750975206454,0.054081389418376785,-0.07783994809814733,-0.010821216678460836,-0.0017586458185731375,-0.0913330603183783,0.06741311669761017,0.029209798430682714
31,-0.7228862056796587,0.06271715317054934,-0.24365846915545264,-0.08526938376126907,0.00598610817221602,-0.03827472664460682,0.0023739522588367827,-0.2768979755119084,-0.13160995969371017,-0.03126006383412053,-0.22201437398440552,0.04948482136398602,0.1288744222255828,0.04154246831740914,0.050509213146831725,-0.19225053145015794,0.06992977641241821,-0.05319861178228208,0.08395819863009012,-0.1403720358694911,-0.13109690105360355,-0.04910505334974652,-0.16276569488159495,0.0498524956361784,0.12646668741427636,-0.052293907632420915,0.043752474018687024,-0.10375515968948264,0.14784851433460036,-9.738264311160748e-05,-0.027715095654715086,-0.20017130087055382,0.15588291818876898,0.12182259360706259,-0.013775297867883231,-0.06180863697135087,-0.1814793905772085,0.044477794371696695,-0.028962699487665434,-0.134490119964381,0.07749167347739522,0.1177758561108719,-0.05583517253839335,0.01979103804365497,0.007442314610974521,0.08047777472498482,0.07317954246343222,0.054886047298984705,0.07877353252890117,0.04718261758635652,-0.0578858206275507,0.02238954390196864,-0.06521090402596948,-0.05549949029191676,-0.07249208595993041,-0.0019229458652472277,-0.015847133876798643,0.0162590015900346,-0.07559185938619406,0.039761173478830174,-0.041178356663429845,0.004514734551376477,-0.024071590353663904,0.018174359980579296,-0.02180942538084697,-0.054467077220095875,0.01859288477563186,0.05404718857240269,-0.02141337400628316,-0.0012473900891598103,-0.012001810190724856,0.024305899871085238,0.016069998241402813,0.01377787076775291,-0.03578318761192847,-0.051363280136926204,0.01533279597568027,0.020109658149014296,0.01247679679744429,-0.003212961218679485,0.004587226569445937
32,-0.5533098796938362,-0.044066952208930754,-0.07753163865163552,-0.03575200811502943,0.08901100512028345,-0.12448510541309435,-0.04899938473982199,-0.1638962289003141,-0.10115840364010752,0.04269926414970985,0.16371343211143288,-0.057801977005026504,-0.011320448841963836,0.06016229144750408,0.07484575789799369,-0.12118057407731495,-0.0026970033635268123,-0.007541335317254875,0.07293806896880876,0.03344790637063925,-0.18368167944721409,-0.061078290121187234,-0.12214407385918048,0.15605314420690075,0.007181452067535931,0.01548385325197414,-0.0765217239042522,-0.035984187067216004,0.15973405639506583,-0.03315451461078205,-0.03506060414638225,-0.07683888962921413,0.08809517918078691,0.012610631878241654,-0.019135834304932205,0.034033549199917384,0.030302586771757494,0.010135347000035981,-0.1202169401432971,0.03481599221478413,-0.14050808007937127,-0.1082957123210426,0.1097964005806372,-0.01962829527404368,0.06525348627404041,0.02205667168711613,0.03459599112235405,0.12464896893481213,0.1140039440341998,-0.07425395311901822,-0.020444932065111714,-0.07262898440660391,-0.02956391670357634,0.006747789627100618,-0.061433744284515215,-0.005278461012514257,-0.13157497049859443,-0.06910951444913371,-0.0001116845950726537,0.011271693641577514,0.07485840698064815,-0.06270531263240979,-0.03838776517567097,-0.025367226727382203,-0.006320392699381645,-0.01296242846697406,0.025413468474420668,0.02763550959953858,-0.04480479003359514,-0.014382151521397848,0.022168292331515377,0.0005340123378592018,0.03563227476239612,-0.02310472800797379,-0.05407675380474888,-0.0006464373113325413,0.02183978815425522,0.03990031836420888,-0.03207900644012909,0.010448924773988082,0.03336867952769679
33,0.3172855678822548,-0.42990421956278824,-0.18033886869341204,-0.043197633358816497,0.21408298655121036,-0.15402013143201088,-0.12087796254852802,0.023566617397695097,0.02964096795091895,-0.029373409793887396,0.010798278871912011,-0.0907511006517056,-0.14609509237373852,-0.07253213736046323,-0.00467047391579948,0.04961868834332529,0.07452205072252482,-0.06418676585635213,-0.10347994381668792,-0.08865211375226278,-0.009468939260477024,-0.003934982265328874,0.04497184503988607,0.09830885289450947,0.0023087777382004367,-0.09143773795145459,-0.01726562489134923,-0.025886421623637836,0.025309475952942063,-0.0001740610013582804,0.02421987686439438,-0.08168795632551913,-0.024786607905157017,0.004127748470587963,-0.024815423673365082,-0.030514855513150838,-0.0068586062771966135,0.01857636946755283,-0.06159410198362528,-0.010241344706489302,-0.04246009265036505,-0.029969022363490323,0.02183428315699102,0.013711689099158066,0.007630801104993751,0.03425868992186144,0.018351271868002946,0.009806999453834083,0.038228764626384235,0.03744256133186399,0.01677891682735376,-0.006198626324215707,0.03465634088714992,-0.05507065176911365,-0.05735541203263333,0.02540029388813418,0.05062373708541076,-0.023886133640437075,-0.02684028580491759,0.0014978047290920287,0.0016886294478844126,-0.037942986939801734,-0.010546579301564335,-0.00946121189719119,-0.03522447022500056,0.01732293391347618,-0.06022951598189884,-0.002767602892352801,-0.008594495284204548,-0.011205195542413173,-0.021736800328813945,0.004124477569381013,-0.007669239086082582,-0.0022691202155152045,0.007386185239425438,0.01125052190409846,0.005462490751116965,0.015042593875150247,0.019397595409465326,0.010611074668603653,-0.05433938250276566
34,-0.08666430869177685,-0.2741369232303294,-0.26273333799975074,-0.08733790895101848,-0.06730217184052364,0.02035557535212537,-0.006987192361478856,0.14759295849602558,0.10296976250107356,-0.09505489366352059,0.03867204981894857,0.03449345325949119,0.16257295641830438,0.16379144537305362,0.11165836643368748,-0.186528791789503,-0.07099392069915655,0.05633778943710232,-0.08801282312353863,-0.1248725510603416,0.11675343467909552,0.12688572711862312,0.07747274910309432,0.08082367665126566,-0.023404618489302042,0.09158784530029981,0.0807895053877967,0.06746143815972803,0.01771390516405659,-0.04485777946936877,0.009079328772025495,0.041621702342909635,-0.03457246711287346,0.013079821630128422,0.10035726860446899,0.10801366560908254,-0.035870044702145845,0.008278788254720898,-0.02857166558826822,-0.003941524607205316,0.06460931427157887,-0.05143554406529216,0.05717863885297074,0.12594141822675053,-0.02416940508751343,0.06852541243879508,-0.04230249235384814,0.014603059313615614,-0.03976644257277713,0.05447237479070569,0.048863042047594216,0.02776401206185849,-0.0008063551977808157,0.005616480061622373,-0.03220049408588833,0.0850334038628527,-0.018679385425919938,-0.05936973672437834,-0.047093157478235816,0.031126526198442972,-0.04728314761849403,0.06100692192938542,0.019417825966393024,0.005101658411886805,-0.04097117728160018,-0.0031659109325403397,-0.02925060724002623,-0.013653452793492348,-0.012794729209575601,-0.021479681159296136,0.04632081969584563,0.04728329377973631,-0.020555270968609193,-0.0008434453861007913,0.07278354102909156,0.03769833529023103,0.010178373049283037,-0.02559910218927186,0.03998519190064936,0.023891001210253445,0.02764269368186084
35,-0.8796916568038761,0.12833694447048186,-0.050878663482587724,-0.036025550583650943,0.020833264097348765,-0.11414552869237701,0.0415145768299729,-0.241313829825286,-0.23653666601004833,0.02457599537478853,0.03414524284485053,0.04982074945484702,-0.10156079258387309,-0.13008713951534126,0.13839163293345866,-0.050018783883066964,0.16941210046791308,-0.03563879186077127,0.038219881678609686,0.1498468287397102,-0.12340287647752447,-0.013746810381291668,-0.1568735937043299,0.08635101626423448,0.13156198972757419,-0.006296816619824687,0.12405080801267906,0.2462013929071693,0.08965766255997079,-0.06260585302335124,0.18430516915997536,-0.04562320673608021,-0.10875331203116344,0.032959241306636994,-0.196768941963401,0.023274369859252124,0.13795846228594408,0.02031726441165818,0.01362696506506585,0.14733241298894428,-0.09667099004975822,0.01856067112898424,0.1312913020934723,-0.1336905945395764,0.029706252006747536,-0.14152407327635688,0.04707268413770539,0.09544171325387396,-0.0758546011278071,0.0010404450930315116,0.002977092431506221,-0.05751916317973507,0.03938280472754701,0.033426184585130636,0.04200229929366165,0.08031959642726592,0.060340974597491145,0.04717400011342556,0.04472798632290995,0.028746271049654847,-0.010948309294382536,-0.016110299666977187,0.027395551201624405,0.0372720609452439,0.019340193656317412,0.0562118455982661,-0.06923106320856615,-0.026839809586741016,-0.030001279096549167,-0.03947713143651897,0.019183276464649186,-0.13137718079372476,0.1344738953098346,-0.0645577308159556,0.059680776873983286,0.08697766765813503,-0.004476801490508655,-0.04570607940510433,0.01534837327913995,-0.025315782705814863,-0.034388057674838296
36,-0.8657943258530725,0.1417103264366613,-0.1703953773720798,-0.36745441519485117,0.2547226896819789,-0.23942417712029937,-0.021097119831546735,-0.020854790836841972,-0.10662210533766842,-0.005640166205226994,-0.05422557617274132,-0.07478257405106907,0.14198615090493535,0.15566503543626117,-0.014154495607461055,-0.0472098152076879,-0.15259202288252904,0.04136706783590351,-0.1003584331868414,0.08920999440872805,0.05039698378488984,-0.06526897082731128,-0.16202582727093728,-0.013863867704185955,0.014788622826070871,0.13591917406546034,-0.13975392311267718,-0.0764345805026859,-0.02501348073402431,-0.030237212252339055,0.038950043296231106,0.051810539941525034,-0.013000850005841107,0.06488099012416501,0.03404434546074701,0.058659171471392484,0.03273967851191002,0.029684888325692764,-0.024275499871086702,0.02005492496445557,-0.07910050684326289,-0.014123509003415906,-0.06550614261731429,-0.04629615921594181,-0.012699848434416208,-0.042044658446140755,-0.10405224085435574,-0.06318458805108523,0.014095826147281484,0.020973793998820985,-0.0019857430524395214,-0.012915969824998905,0.03997105658984888,-0.03668822099382129,0.02843729234693158,-0.08499487203269543,0.07274940966849028,0.01508163117483485,0.006458311825249954,-0.037475783282896004,-0.0016644284357023012,0.0033828539003282116,-0.007928383299061969,-0.006487140202797433,0.00787896841427854,-0.01595442932014188,-0.03852320331503092,0.030424889158495765,0.009112664720061864,0.022972494297118694,0.022159476080340183,-0.011271040464755671,-0.02768213812586002,0.04174708211973739,0.009136769581975566,-0.014995419038836671,-0.022542222289240302,-0.041568960568989274,-0.012419875341617507,-0.029406515054042532,-0.0007880603359407582
37,-0.8108148346750753,0.10473523358725684,-0.3065856751584412,-0.21046704459041768,-0.04319696054990194,-0.045311798465097454,-0.029686250580586573,-0.038649687452748514,0.09742320918006728,0.0447962481483954,-0.12310874134117983,0.07318967867675866,0.030920899621286607,-0.03071978910592692,0.028457326704468437,-0.12315640597148736,-0.03615433429536142,-0.01184397280058292,0.08112444460587408,0.1271083538738588,-0.04870470439718934,0.008668522040360822,-0.0866863580359278,0.06166528181859716,0.022615385718064637,-0.02953943383407323,-0.05879682001253046,-0.0036026368621989843,0.01513548934715442,0.09975319661912381,-0.04126369010262766,-0.11876820932228328,0.0765888101817602,0.035369595845776355,-0.02521328589464197,-0.011672292878429753,0.004428705275081277,-0.01563664011935019,-0.04259914540804611,0.025835420063522553,-0.04936606307589116,-0.036472214550593296,0.08794020156021509,0.027819524314777782,0.03984052677216889,0.012314248597173515,-0.0027349728458089285,0.0006742200755076165,-0.07289392722348183,-0.04658740602959998,0.0011603573586947856,0.013503961895821108,-0.07198314968758462,0.019878437953310565,0.016043828752224914,-0.0025882384913932808,0.013560762529313233,0.043724879135718986,0.009030545224017793,-0.004427472194079132,-0.013047997980872379,0.023128614381096892,-0.044106221112704,0.05461890063254405,0.010362163225415196,-0.034736954536356376,-0.09943993398963123,-0.008624731303582236,0.024650734679526443,0.00937955117355174,0.05476167501396149,-0.001859131053763983,-0.02286800920035504,-0.001962260445432118,0.009082306061357799,0.016365355653124775,0.03677416949383979,0.026304108939323514,0.00777334218697355,0.014538120203532769,0.014530963914165784
38,0.5424780253553972,-0.09904710318816384,0.33545544304755315,-0.30378661287492514,-0.17973728655603663,0.1264873146500193,-0.17020834151489475,-0.022994927847922925,-0.018320966320081858,-0.1460772554068334,0.12819200597576244,0.022080438759554906,0.012003245602666912,0.018779534407483596,-0.07532175206810883,-0.07619580589414753,0.07866716123187505,0.026402443442202647,-0.011222841262024379,0.034353409713961156,0.13905236506538826,0.024194687153826194,0.1050977183568788,0.07975609554583374,-0.015039542666046768,0.12299865659388853,0.01663799876342059,0.013273137041347138,0.1341050802194954,-0.020284562233271942,0.005482087681609368,-0.013886519710341006,0.035279444435078015,-0.02884477931591227,0.13336788522118706,0.0004970245805397154,0.12229756856148247,0.028571337125137715,-0.04683359901093446,-0.07471006370703648,0.02092745119081457,-0.0630829187181287,0.03687834678314533,-0.07124006368949833,-0.03585603257788155,0.09955480752252455,0.1326479914187861,-0.10955394446554537,0.018745135168995744,0.13956208693404273,-0.0215705515526218,0.00014033082185342048,-0.08100069674724217,-0.03438624123568021,-0.012985900309065018,0.07707965457215205,-0.006892024740447309,0.028741939019634972,0.031043553039809015,-0.0149193442286775,-0.1566263322108006,-0.004115597158433199,0.06428928664522016,-0.06323793278335667,-0.04698164191556084,-0.03103503864206291,-0.06751460531593728,-0.00452810446811213,0.002840382670485487,-0.05510761825088593,0.023300110031387437,0.005250698719816131,0.009875521154244674,-0.05330708909697925,0.0004712401687538475,0.017139864331305873,0.04320772588571747,0.01287965477693018,-0.0038923015776185423,0.012976492178156855,0.0374855942919247
39,2.1019956128957817,1.4499163909338542,-0.2237948120574229,0.5333181201038173,-0.4117630253406509,-0.22880845256875387,-0.147570904047996,-0.049412363703135,-0.30976055844429057,-0.20118310569699283,-0.33928238416531126,0.15594148689486742,0.29374871480262243,0.2780462405523479,-0.48325621197502416,-0.3294833199551744,-0.04589440939721966,-0.20014664124298795,0.3117617038115288,0.0999898922123676,-0.02796581666785639,0.09627207664890194,-0.3970962740456994,0.7217566303164785,0.2555218706771633,0.18165380062029116,0.2168556010023257,-0.05520009417110938,0.15658548245896267,0.23125330265064828,0.11579634289913052,0.11484338497804435,0.10633997453274276,0.10173208813607605,0.27802933107524536,-0.0018540345870002412,-0.0396675216773055,0.3668508383083472,-0.3562529348055615,0.012676841303748099,0.16496204601167144,0.31456307201144146,-0.21023797760475427,0.18546940570809667,-0.06964274241891502,0.14964893797451786,-0.2435317300649014,-0.05032890777219929,-0.10566838506243567,-0.05409814637153407,0.11542376551521787,-0.07818581177175501,0.14822646528394023,-0.11244107486127665,0.11448482892890889,-0.0025914529786449825,0.21999520644813852,-0.11078818531674982,0.1952943523962626,-0.1758291207235424,0.1998631119055491,0.054990361734048976,0.026525841216867328,-0.10262496136201789,-0.022747609606592844,0.07406263238777969,0.005124908522205882,-0.012240841284631442,-0.09858830031246223,-0.22255424230349066,-0.00786453042695981,-0.004016244028486445,0.10812680918047463,-0.04336816319512144,-0.10063867422457974,0.03479585067075754,-0.06444096802031961,-0.07532540310160088,0.04182484802797133,-0.007951186803999108,0.04211739042478579
40,-1.215617384609324,0.24386060774700435,-0.1771127242558099,0.06892557461926493,-0.0024159805131353023,-0.13986580727558998,-0.13199375414230757,0.1564845796398267,0.16092349552327093,-0.17933705682891848,-0.23250978436334607,-0.11239732505374554,0.09482202933152752,0.036937441060490024,-0.04320025881875022,0.01848740180356892,-0.012911795493788337,0.28718163185696444,-0.029551547896618,0.11665116998757004,0.17785034703984265,-0.06249674549417182,0.09849424852430523,-0.30934958981062494,-0.10027522159496853,-0.07417664898363253,0.030246610499232204,0.0027633938412474296,-0.00031532126760296976,-0.00404026354402346,0.09451493344611062,-0.007316162441554485,-0.24048374618691684,-0.03377980615892892,0.10643845991142016,-0.04434813569894359,0.041507443431354984,-0.05567125018214328,-0.009561874762893363,0.10371720806559565,-0.028619901262946067,0.07713889016090222,0.003519520287286694,-0.03702130175140299,0.007718227484012775,0.02424289618456244,0.04063769433791338,0.06413599563742023,0.052245571695436296,0.09983991533107729,-0.00990674308414038,-0.058516395845866646,0.16118354457395395,0.20670081296835918,0.029076936318903117,-0.17976035280796285,0.04317106150399163,0.025994709514330836,0.05014880737577833,0.0813967455395927,0.008927989750727044,-0.041760383289933735,0.07851738945543126,-0.034266557221421294,-0.037512415451760886,0.00038843471526317253,-0.054202955993002115,-0.007602901344432195,0.030750561407976527,-0.010426925329607978,0.021208423527126593,0.02060536192934695,0.06929993596989127,-0.03545235019054661,-0.009914247981962795,0.11433668182057168,-0.025981366024503003,0.028196952060013852,0.07248581971968304,-0.05670773467280621,0.004251065153334842
41,-1.3784177800627004,0.3653881895424163,0.2941635903014049,0.24322824752140473,-0.211618414711231,0.07289787486625544,0.5237944833359436,0.40230356080984386,-0.295626865599523,0.2616290075834208,0.3565914417726557,0.12135070638685615,-0.1787654000112224,0.0026792262198085917,0.09288477334242957,0.09039742633931805,0.28636453178133214,-0.27912961487024096,-0.14801859364021436,0.24518445607921188,-0.11429081755300775,-0.036482001951225515,-0.14853241219882915,-0.0155220674090676,-0.04213195096201178,0.0013257122600255425,-0.15725640175666689,-0.02846086114259799,0.03680314332842152,-0.2204966418073693,0.05294834700423967,-0.1346928181243485,-0.1251110339151837,0.11803550501369243,0.07200451648975502,-0.04089046177176297,-0.1299604585687747,0.04623984176434173,-0.08404590560626653,0.1329986122099568,0.01313661820193874,0.148997839750822,-0.0413529555669242,-0.17165302041218425,-0.1423341221308347,0.019773699604821803,-0.053248501837390244,-0.09483193015962425,-0.005501959556343145,0.03268373045100681,-0.029824403985594324,-0.00709379435146688,0.08892791310714844,0.08125833618444175,0.0790853122729013,0.15658997526129367,0.05392766260392831,0.1145353120265809,-0.017703340763936263,-0.025838456455689676,0.09218695216828666,-0.08638683219846141,0.041681115484092375,0.03840957580369759,0.049112909527552415,-0.0017389893308623757,-0.013931855390963779,-0.0076328105308737515,0.044563781383729004,0.016733670970085348,-0.031501927502658456,0.03280240230433539,-0.01664259405042055,-0.029735947017027118,0.022426901971813695,0.011499724662499015,-0.00671815941166238,0.0007981616003500391,0.006610377528505155,-0.05847837854036667,-0.051508570542423304
42,0.18744805243991963,-0.4174767242261781,-0.009567047180906129,0.04876867520404269,-0.0404289758609791,-0.13518394302060813,-0.05925331061549196,-0.017151519316968997,0.036419546502383965,0.07493969061698334,0.009540832815076306,-0.0317791113163151,0.06875974302716274,0.17577949955073655,0.11552542025845822,-0.09142780195402318,-0.028941023557249163,-0.10930364077270056,0.08381512019727887,0.09430532446251517,-0.09301975980860587,0.0007537618874797499,-0.14219416190623513,0.07263436937016732,0.07571917977948729,-0.01601504193640582,-0.07986953337265183,0.014839260229946792,0.012606359905591847,-0.09401089190651517,-0.0725387960031091,0.004238232504140023,0.08936292424093477,0.03158389836020346,-0.0005443422143185458,0.0037350494899372616,-0.10312616959414818,0.14958095680852446,0.06547523738654774,0.030941824404223477,0.07831024835261442,0.03132236483784096,-0.030918949366867364,0.02651763608535057,-0.017779431532038526,-0.010897315462535181,-0.010915100633334653,-0.044590912330387436,0.04099288495434729,0.012503922113284988,-0.051787300081545314,-0.06914801946227715,0.10372423650410843,-0.0040692980055995025,0.030488358313458412,-0.03505029297430804,0.04394548690288188,0.027417140018315127,-0.03794433708093201,0.05097519213511202,0.025928489217059047,-0.007905449403778518,-0.016609388159233615,-0.019842174489174517,0.015315160359208973,-0.031373581150282534,-0.002897780520654769,-0.006009807466434432,0.002396370551253356,0.016539640733481475,-0.015634377404111093,0.0036423744333329987,-0.06146744124247526,0.022475538649871264,-0.01891556972523901,-0.02870941643032275,-0.024310740689379183,-0.025371463405597632,0.03393098205322477,-0.012844486218280857,0.004429444784898126
43,-0.7599331306694643,0.12551260027881392,0.04411082326114547,-0.058694373985170335,0.38480808607633493,-0.3484092393173199,0.1747704761560363,-0.010850917149985335,-0.26648788299733484,0.1800590084955793,-0.025390000162738777,0.17094006660514763,-0.07223110343339186,-0.0513042169790472,-0.06400633004503932,0.20998486195011332,-0.05964649341419643,-0.12417796087540521,0.05851174114799932,-0.0048809894856927695,-0.055644131627786024,0.07780950414124115,-0.004866833548993915,-0.010390480108593773,-0.06847498235403097,0.15593458485820144,0.024409219127942167,0.07531584407439525,0.05305240879972476,-0.04108755487565353,-0.03432223937904342,-0.02948446095695615,0.0059911428362706635,0.00791658104216635,-0.014503036302690363,0.031530256576955865,0.04835162926482175,0.004659635909126624,0.04812548066181494,0.014928269119594613,0.0031708432764024764,-0.009168137872291544,0.02901774742061602,0.04592429450109001,0.02435948963151705,0.06692860598869446,0.0071726080698599586,0.05605106007731951,-0.007495204475668256,-0.02027953707308804,-0.04352335435856736,-0.048438777127153464,0.033820470353640705,0.002485054700553063,-0.008719150726681186,-0.07441676659978207,-0.07890413876627116,0.05910281648779804,-0.018428309575542978,-0.015040398006028346,0.02479899397010482,-0.006515714937959118,-0.06379877824265318,0.004276682991704147,0.08888417099969755,0.015504035854423675,0.06065128572306004,-0.007657144376054834,0.03557921684744805,-0.04184143260406484,0.010760927976471008,0.0071332219733288545,-0.003741941241863101,0.03859153103794726,-0.060135355647060455,0.01537007836967641,0.035309889771106134,0.019165455600026932,-0.015554494963385112,-0.003853977920264539,0.010444883471751789
44,-0.2806228934219037,-0.13985181165652621,-0.22694388717908667,-0.07252986549497682,0.18076447310946508,-0.16608669632193987,-0.09609314823218966,-0.11686175270030978,0.03441523620076928,0.018863709886985394,0.06059898726972021,-0.03783033804970375,-0.0462486631110542,-0.02471614530677261,0.05152425834875616,0.029923823470990492,0.08253125277396303,0.12731628516887805,0.09834432664985535,-0.046079928691911166,-0.10002897971368219,-0.02858705515627722,0.16039640420235005,0.08562491647799172,-0.1210606761614619,0.05341212892344221,0.034658878629883094,-0.02090431689099584,-0.031569738857903526,0.0022037925976368922,-0.04554481741593322,0.03078352596714666,-0.05481732432869194,-0.06098712931475531,0.11251449878672017,-0.08443894104498081,0.03294863696157885,-0.09397105248671415,0.03506540629467143,-0.083077356617136,0.04300357385645548,-0.08213508273492949,0.04045542455330503,-0.06954460798234878,-0.04799186462650756,-0.07732998703410718,-0.006997940674856653,0.003972563879537227,-0.03711804973351881,-0.007755009161446506,-0.018195357260920732,0.06473906845866303,0.01180755442749502,0.015621759651134602,0.021078438100942336,0.004209987363540017,0.010035647315456376,0.021066268521918893,0.026419037406376647,0.00045067768113138455,-0.05703368650107049,-0.03422924217704022,0.06292621297422804,-0.019136004037430623,0.015083911803883061,0.08791165552521632,-0.019120214000364198,-0.03098352368340122,-0.014397065013252143,0.0038644212811833286,-0.0049957229062084045,-0.04786604893943219,0.044817442818973256,-0.018488295721035948,0.008607789258885772,-0.0020008850229978883,0.004880099743924678,-0.014412603521108378,0.007800461119774411,0.023720097285569765,-0.0056217529922066856
45,0.044038078768253476,-0.38778233583031535,0.7488643584822727,0.27855418809683474,0.1429793145105613,0.022242511190524557,0.08155085517031047,-0.17711342030106542,-0.08483309998379478,0.15857743250601714,-0.1942354210097174,0.10491258020272333,-0.15954652691248003,0.05193323325902302,-0.06105858206804422,0.028228728382881582,-0.12094829043749762,-0.045477582138402195,-0.02066477555055786,0.0031293386139920353,-0.008695923873462285,0.06159672667520708,0.01979516532121348,-0.1908828975119002,0.015531382343269447,-0.008943107885429832,0.0226896945603283,0.07133426402975995,-0.07533829467453097,0.04404045219090714,-0.041898683519432975,0.0036839531282636196,-0.13611662269095282,-0.045594603835900756,0.03794486915980056,-0.0893799832519653,-0.08953906778764156,0.06870086719480598,0.017450659775782567,0.004082407226139431,0.0696855746702739,-0.011963271512045674,-0.031607759469476464,0.03372384362945438,0.0341015871326267,-0.053484747475414506,0.011153342708773138,-0.025813752399872828,-0.004501379857128884,0.029780643127603142,0.035103795050265306,0.00588927033293737,0.029372621033174864,-0.03370605801860289,0.010637328671809946,-0.056148510745490855,-0.008465979340029413,-0.006463449181068157,0.03331571523106099,0.024416195235371904,0.03080651279995378,-0.021630821706395437,-0.010096622188110024,-0.0064204363188103625,0.00289969984975565,0.02974005269807139,0.08441058161710242,0.004194094900021908,-0.006470603773113269,-0.008035501119656577,-0.05623403904836334,-0.01975786529435461,-0.016785802611848026,-0.038442651764704655,-0.048847274718193494,-0.0488092754105907,-0.018044733299084532,-0.022129225620971558,-0.04895349504932042,0.003745735941304971,-0.0007114102351808172
46,0.8267701273767147,-0.24949612618824402,0.17839950531323878,-0.23537492912286376,0.0814190876076717,0.39685994068900027,-0.10231209382059346,0.24305471469852052,0.09719491471962545,-0.031081632381776372,-0.0989117873882681,-0.09201090308053758,0.26679783365498916,-0.13465137896428653,0.03862669110408194,-0.15177583162737743,0.28523125648592557,0.23182585321018195,0.24469831039831713,0.14945254021213245,-0.1217731521649685,0.33057857750039055,-0.12440975039497379,-0.07678381851078772,0.010056500196540296,-0.024659766894698155,-0.13012544477996354,0.10499167525461243,-0.15433530326115008,-0.00578690228009127,0.04527583162819899,0.03890112343046864,0.03543666304693247,0.11174234330556555,0.1572037857251651,-0.0014271522440081922,0.12539789754209602,-0.026654629595433393,0.022024062290475384,0.1427437045949667,-0.0349287565119982,0.060313377987524834,-0.09707988931396623,0.06913251822080092,-0.08120574697146837,-0.056274613794059646,-0.0016505637957173278,0.08900064872239838,0.05957126502110206,-0.09851795039540287,-0.08849153944319066,-0.05230178981454708,0.03763974985484748,-0.035304372058771114,0.0368947035109514,0.002469424594642456,0.0998053805176919,-0.20433810502994326,-0.007691955371565921,0.06834337088106039,0.011581590985288347,0.025230735860062435,-0.03257688664408539,0.041741154115173644,-0.046001297982933745,-0.0699083764399736,0.05384198253042088,0.0341095924760381,-0.0075689269767392165,0.1033838396482287,-0.0729973257277819,0.07252514716072446,-0.06870965167581822,-0.006724122308503672,0.06272008641899793,-0.06887507584151739,-0.01592054247055636,0.009376857671759603,0.06643553557576347,0.0380548009453038,0.036778899791456834
47,-0.6128965232098925,-0.027202805684248335,-0.016923233710437822,0.05930496032507405,0.19357703892723524,-0.2299416368073473,-0.040380025666057445,0.04030004944208072,-0.01867207574757436,0.008936296169271895,0.10874780446201812,-0.06729752249109552,-0.03874310194033877,0.006453803616238676,0.08265207472569419,0.03445384534954861,-0.09493390492748291,-0.21006085687803763,0.00795756664866598,0.11166493466906532,-0.14821354913428506,-0.07445614972645134,-0.039513990323977954,-0.014091447511983428,0.07475957420338752,0.00596484526659331,0.14832033915235457,0.0851829691370712,-0.05774896461221234,0.09672166552730319,0.02837195333044939,0.18403069363343436,0.024932751326947465,-0.07617814904559134,-0.12698003818357395,0.0033943960305851,0.006960349715997463,0.0349925815422463,0.08650870576228359,0.05575223865964166,-0.016843111799665855,0.00242357774982174,0.06392383887690951,-0.032800790113721265,0.008884806041338808,0.027132712989691367,0.015571899280167965,0.09423928641712723,0.050380189845261686,-0.0125048740961465,0.07308564160645564,-0.13461252767110551,0.03576213204446035,0.028472475329589315,-0.0017870057351747136,0.07062558634448551,-0.10147405717881659,-0.08164997026770004,0.016725637351707692,-0.033499422204849014,0.05815633763322262,-0.03385964817470897,-0.027352033467402295,-0.05789009241277539,0.032713177398219696,-0.07007337967256913,-0.03135497828929261,0.011420746449322719,0.028629087791065808,-0.04592761844479601,0.013834490742930354,0.036926294453515585,0.043633134366219566,-0.012311911142403315,0.007060612872578355,-0.00531740715937229,0.03456154162930245,0.008265394490190692,-0.08646101462049074,-0.01936947541412096,-0.07251821384014581
48,-0.7706327762798075,0.12092673929358827,-0.5189205088182738,-0.04134792425337104,-0.35674215622856653,0.23681068824104784,-0.18250039964817377,-0.24296859020749598,0.4284945495609557,0.05370319063542215,-0.0825338352521977,0.12058779558905822,0.14260574815395974,-0.39813239318438914,0.018070390847606116,0.24642458838671033,-2.0998889913368427e-05,-0.09645847556382078,0.11433088522574292,-0.008525612894193539,-0.08632312597027454,-0.05121418964527938,0.2088315836708586,0.05458870956735552,-0.08634177958490179,-0.035780712841035636,0.11446003028269085,0.0013419941385666146,-0.008454082285631014,0.10308468052909536,-0.07817463639421557,0.019211449853463916,-0.1479615492203138,-0.04913635919512666,0.021471718720928925,-0.05599330951263806,-0.02275171653446008,0.034047424940132076,-0.07064788875717425,-0.06674574775727185,0.06151157854015294,-0.01582781804139685,-0.020054875501871253,-0.0330377858610553,-0.09421634251895884,-0.14609257030063538,0.024919871869027162,0.06787743420923735,0.010137593258807575,0.017484942012042804,0.13984871337452567,0.1211466421422419,-0.03377661436591469,-0.06562981933643394,0.05469929387061972,0.025428106155766624,0.13183899166663487,0.019010446826892777,-0.0124481854730323,-0.05669404481652796,-0.0852726744608042,-0.02619527661203461,0.050963274501047866,-0.05719457934834973,-0.01967508525354602,0.054540681211691165,-0.0762522813667825,-0.01428301026002801,0.02605283851973061,-0.04703471535862027,0.028235817696291344,0.02912438661080764,0.02660574038352359,-0.010676748322895504,0.011172427222163389,-0.017386152491246108,0.06117236011637575,0.010989377536761753,0.0059976118410342595,0.007969694399836648,0.01527401452702811
49,-0.6372149291359342,0.00814749053316034,0.1064124388951716,-0.03282557938970386,-0.07429414367265202,0.030565419418459236,0.06942761328658854,0.24612456685678458,0.0860908267266875,0.1469331529948271,0.2335540537744486,-0.09178702470917693,-0.1563842625936466,0.1081594869453887,0.04263211507811473,-0.04951604363555971,-0.10700142268190557,-0.15502334979878687,0.1128050078768098,0.028045942203389553,0.035030341761300855,-0.02632783621611065,-0.09074733785569923,-0.05508544763948046,0.20553176299893974,-0.022413744843748522,0.02266658266046688,0.21388978342101903,0.1344601673758539,0.023470776170091294,0.14159886897801677,0.10285532527176369,0.033503405487600633,-0.09513260536403616,-0.16564451869928698,-0.022579749431131346,-0.011431146775399553,0.028253542991220522,-0.03397396363622966,-0.030806618616400442,-0.033752154560886774,0.02417200661050616,0.1174706969760816,-0.02709296946044766,0.08183120192828133,-0.004337947156798747,0.02693042835183917,-0.03722274681503663,-0.0769694012921966,-0.011271867757888073,0.04982034570078067,-0.034465493627963174,-0.0119412603570485,0.10379104768714309,-0.024870131897388775,0.05448232167401316,-0.050343271635338124,-0.10010560300474192,-0.04360566196339003,-0.007982909945013618,-0.04907671726213465,0.048584968725432026,-0.06464880985155566,0.03656795212506046,-0.009252126111576093,-0.08407300661344864,0.01708238202139479,-0.03550165007391569,-0.02615235187287092,0.0214365384733097,-0.05970393527287529,0.06667581623189507,-0.01271747322444526,0.022422348560568118,-0.04056029974450207,-0.049190627349955496,-0.04274671415388954,0.035558921823861084,-0.031275161074814956,0.0018855399846943626,0.05960347781837323
50,-1.379549412025492,0.32167292722929297,0.20494111277352262,0.11890793923747561,-0.3052594099554281,-0.015540058425218663,0.252625171071654,0.13832618749195846,-0.2228999642893109,0.0007942718989608357,0.20347524785672663,-0.21506137785189328,0.10155655495858582,0.24794246089315458,-0.12142862190496664,-0.17423297611525795,-0.09330426267738914,-0.17544146775545807,0.024890619948062593,0.09659862915987735,0.28251802132655646,-0.03289649555833551,-0.05933212217185771,-0.4120085492531988,0.0017794775468810574,-0.22026445701543695,-0.12784137544342364,0.0036678426297044736,0.08503126589114894,-0.16396881720104062,0.1370252357742425,0.1652854733449382,0.05811804302859537,-0.054202584487666,-0.026422671323963916,0.20322643143589855,0.04611262085658046,-0.0112310372500302,0.10672247694308362,-0.0021808746451907096,-0.015841615748218258,0.11627315310080218,-0.13112644030318737,0.19006097396908167,0.13173337502471272,0.05740862765015801,-0.017478022842168893,-0.03734614846250516,0.023344981091128092,-0.013235102197261336,0.00745255105780425,-0.11593563684037397,0.04621756672346496,0.025776595798274224,-0.01159941104845404,-0.04819874551312909,0.06430634677266263,-0.03610722133819416,-0.0020863250297567153,0.014554576387967397,-0.08204333715264453,0.049750909122371165,0.019815493299221745,0.08686775047284219,0.06678236631930969,-0.06991439247883909,0.03409811335121318,-0.04360371917406778,-0.02305675259574391,-0.09378260784421427,-0.03355198504723686,-0.01530776434807841,-0.05283156491328819,-0.06428477144889252,0.0819071087836751,-0.06296056469362464,0.014204530676154604,0.04622766388983763,-0.04816807595275178,0.14901934856957538,-0.06064552230031687
51,1.173254076165671,0.10926384524744627,-0.012886090827070125,0.2888341578863057,0.7781711396741111,-0.13128922977913351,0.12199758919362005,-0.2355776280821921,0.35760612720097507,0.4496953081451877,0.18308842216066123,-0.10718262008075814,0.2872874820767753,-0.06158653328689561,-0.010385560252914747,0.2804728106431313,0.04005570851822746,-0.20435802473264983,-0.43584321778102547,-0.1553704766357057,0.03670178886762909,0.05881225871370943,0.2128284393517737,0.024365309900706098,0.4097399059244436,3.7315095455321244e-05,0.06463331492830966,-0.0545002638552033,0.17734974713180493,0.03415795046245422,-0.13529958457105404,0.06088479440366277,-0.16578348975391047,0.07647088864668768,-0.1991618393954022,-0.015048348040295262,-0.1824422249721378,-0.15794718571458766,-0.1481324687587018,-0.09738146350588084,0.17137834245119687,-0.062292967307329875,0.23551452145602017,0.025989140190445407,-0.07362555670170098,0.33792475140366596,-0.0685415120539675,0.1248391619826735,0.23753830665856396,-0.1338344889368998,0.07476031966402946,0.11120657417348105,-0.05581963928671718,0.046363610036590876,0.2389772706125979,0.10285664086543836,0.06281972279144521,0.04767873000457609,0.05667035769526084,0.3137724105778522,0.06083564189185607,-0.04322487954909409,-0.1285915528974435,0.013730245650346994,0.16413579220252855,-0.17849619494185434,-0.00933774262627612,0.1259075921769694,-0.03969351302034005,-0.04417868960794825,-0.11633521489389259,-0.1269419775317938,-0.06868917908914182,0.0303279783861932,0.02938276198020514,0.08495303009684704,-0.035508717165650426,0.11027931463159656,-0.06305444111072285,-0.04215519516843873,0.048471234048253535
52,0.7200515145550689,-0.7226917621165695,-0.24985665987275613,0.08887314720506785,-0.3525377097511463,0.24228156954165656,-0.05013034604369962,0.05351297113223217,0.1113193950027902,0.1582630513111923,-0.06716927039545513,0.09518160488152994,-0.016394934694439513,-0.07291103293314373,-0.008695595597408047,0.06231820556257672,-0.21726811425945894,-0.2213548927354773,-0.045548166458450806,-0.05874309446741349,-0.06037198355232306,-0.004035212762300619,0.07006144636921237,-0.0036889928235827613,0.09988305271165909,-0.013552037986362342,-0.06428339121559076,-0.0013681441935204988,0.08944553037166145,0.06787017571934625,0.05554899004876334,0.1043598503492453,-0.04947553710089745,-0.05156301151801108,-0.017549894126030918,-0.10657022002073353,0.04686814647500455,-0.20133203738844863,-0.032258973741717406,0.024543208927974573,0.054573005857520236,-0.05458443930021149,0.03188145001194582,-0.061930061526646554,-0.005185270296712671,-0.06317678559567048,-0.06650933345781981,0.06469230718261915,0.08026107344243862,0.05008966012974277,-0.04922624216815992,0.04073147655483143,0.008955362784949511,-0.012011107173795959,0.014134430857332271,-0.06795966515197054,-0.0176988956489096,-0.03450903452318896,-0.07973397213038798,-0.10790501035524191,0.059995537116672853,-0.07237677200964465,-0.07148884504135453,0.10374128723476218,0.00262398597599631,0.01856770177728885,-0.020838198274370764,0.010090608087470542,0.012619364398703623,0.04002519275732287,-0.0029236353657143372,-0.03402038896551048,0.017967300101787573,-0.03421929219362331,-0.055510244208277264,0.03506991570200097,-0.03351813657496072,-0.013941541253727383,-0.04408116934852498,0.04790439407330657,0.007356859503953028
53,-1.0425192523689066,0.26243638305355815,-0.34573498518566875,-0.36664591524622264,0.004507471380353755,0.10403255978711988,0.03684424824169532,0.013449782065034485,0.06305860563379778,-0.029305838405700616,-0.09103325371711475,0.06339894629228153,0.1514755993090031,-0.14669784478445294,-0.059260393429325944,-0.15949189734376243,-0.12702706532027103,-0.030413558784294498,-0.01865156041415585,0.09467170334273424,-0.0796704230789109,-0.07612756507798606,-0.036588056582417934,0.01512298858735627,0.04113928408791647,0.03092368451338703,-0.008072056154643655,-0.00834297689084785,0.012834278304441844,0.09592876390817441,-0.016086955418300804,0.060275805983165676,0.11113837466183223,0.01101750975548553,-0.009454833053509583,0.08768480527310339,-0.0061273001941668315,-0.008574624985087752,0.13453162321810266,-0.08612435131565344,0.033026726622562994,-0.09483312969384698,0.05113482434444673,-0.06567844019857981,-0.0354303743149796,0.0037265835516324063,-0.032655699704757415,-0.06818703093702065,-0.020268267490540694,0.015647616157890922,0.04503010056969998,0.05010912038028483,-0.0045668247264057955,-0.00017308082042278048,-0.02587587816101216,-0.00542251338551543,-0.025404773460701875,-0.0427835064899241,0.01671015784215832,-0.015334215024414049,-0.01962629466869212,-0.028100718209789738,-0.01799602865835773,-0.025848885757281677,0.06260130441414591,0.023524608274569567,-0.022217386446254185,-0.05185982177774792,0.007011996987139889,-0.05914471133587629,-0.012235596001522655,-0.02022666572611148,0.006354141922372844,-0.043824458850438106,0.07194412370024086,0.03187361237374341,0.09907407741512626,-0.03550828584749114,-0.0014084862728442479,0.02071767921210206,-0.003338527379780385
54,0.07253864466422426,-0.3009853601392824,-0.2534489688346926,0.07582513172699552,-0.04405429727312628,0.18420656096379162,-0.07300403729246525,-0.02675823485775667,0.16886443260507683,-0.06536698224549549,0.12898549287891678,0.073611374971174,-0.07626920373976558,-0.06799566061439317,0.023096189097948618,-0.04305351329272956,0.11802439636631892,-0.07239225882102639,-0.1245420825223228,-0.018036654576581743,0.09683093658787525,0.01832421459384442,0.07042091862523306,0.07044753857818113,-0.12968918172283378,-0.045103147709670464,-0.06058705211913155,-0.042529625368364105,0.08343456075543351,-0.03348382043689655,-0.041140516916494,0.03476293857474982,0.03753085691632516,-0.015560444463819864,0.08331849923435161,0.07161608114589745,-0.056017387482897356,0.0012160962532460962,-0.1369047651165636,0.08740578137611044,-0.03556045491178064,0.04999902416424916,-0.04088785810203939,0.02413750819956628,0.0132188207049188,-0.020009140288200215,-0.01037120097424944,-0.036097823897501526,0.010927971276655384,0.038402683086341115,0.04953175845685374,0.05642059520007936,0.038622705959065785,-0.022503103795845036,0.006187273348876335,0.06554691309479163,0.06926357244888466,0.024181195884911886,-0.035735729412367065,0.0009423026479679376,-0.016828122706329832,0.08051501069459038,0.03339631580496359,-0.004838605216268748,-0.06180620436278552,-0.01153775139086691,-0.030055064368169175,0.039997871888761305,0.04897320728405417,-0.028245871526616936,0.0011052545214344982,0.036878054043271886,0.08556582381935564,0.01230813455497393,-0.007998473676901558,-0.015511288029925713,-0.04017852174410818,0.003289841791073144,0.01279460541282899,-0.028702064746109736,0.012997846717941724
55,0.7922501208219619,-0.7452239276285957,-0.24012166698787674,-0.039204657315128726,-0.07096519260655915,-0.03831012105728041,-0.0440900854048617,-0.19357051839985012,-0.0012329094915283637,0.3569960076816384,-0.15104365005749945,-0.006634070441565047,0.07195594110648666,0.11362820276804997,-0.048980961122558404,0.058423125465942534,0.0707859751270779,0.09179417238997796,0.06186506180801935,0.07348647053459713,0.1319606126908568,-0.16570639741949197,-0.05796255988907761,0.08254003479577389,0.05671730553216907,0.07446396536462627,0.009406486058731083,0.006512190821497996,-0.06850594007206559,0.0038876831182400426,0.0035790615624791255,-0.10092969250805818,-0.13766965465058423,0.07241732853601335,-0.05176840604706648,-0.05974850551091231,-0.07801476549161339,0.11436516262139962,0.00824121408255352,-0.016201689101834067,-0.06991580924361694,-0.02322347363626331,-0.042218164055077494,0.016890320921383126,-0.03599293245567106,-0.07141044459341817,-0.08042044663023011,-0.007679540054109828,-0.08268476256435933,-0.02343334981484584,0.026787521211478628,-0.029150922896382072,-0.009949359078641303,0.02008616522925405,-0.02912078435863178,-0.0003719866753585805,-0.028514740231923595,-0.016052492269501686,0.07886172765722307,-0.022208126484001715,-0.03757538191109351,0.07695260431729055,0.03732167711571814,0.03825431835562552,-0.06974036000602027,0.021539678628416485,-0.06363551817868246,-0.00324840737934701,0.0038145052416479848,0.03909330862892136,0.031124357120595404,0.014558469999421338,0.027815797328620245,-0.004139534652482055,0.0002745937677476268,0.024804618205450026,-0.032505456490513486,-0.020278958269557383,-0.058815356417367105,0.0032929271997292676,-0.0016646794530130922
56,-0.8253337478186751,0.19908971451911647,-0.2720573632816167,-0.2249405250381747,0.07908134615905744,-0.10553550617643327,0.09248224559333135,0.07529674617308264,0.0023155182713202292,0.2027108933896444,-0.10769809290784281,0.03033107237576869,0.1166339172260099,0.11374306880824817,-0.028744051321542924,-0.15249010249521114,-0.12873891763004938,0.029068219034859847,-0.01449318131898251,0.036707450191550244,-0.11730198889308063,-0.12050783013855179,-0.11548589757493498,0.24602528095350396,0.16003564948656443,0.1235506507134709,0.03225565756266834,0.04727525855565154,-0.07619723211262075,0.22554443486739487,0.013843747923593946,-0.09435309532717573,0.046752196832040065,0.09174177958462051,-0.07845765642721757,0.08776051502866643,0.04530637000985926,-0.11410589223217728,0.09596279227829241,-0.0075363717880781505,-0.09719733352449991,-0.0932494644799807,0.04184055465490339,-0.03651814399854007,0.02804284513428028,-0.0649216501228062,-0.029762443284799663,0.030883370518663297,0.02795733091124568,0.010512107049420209,0.10315476268193113,0.004786200588226101,0.04234524195268058,0.013449752428692993,-0.0037796949752279254,0.01101909707629645,-0.08679827607998332,0.006627883751456979,0.0647269646575956,-0.09437185930356572,-0.028065309932096553,0.040726392078099596,0.00656458953921567,-0.015674165315436344,-0.018649442331117396,-0.0609178275334138,-0.03283451694127959,-0.016451502453097212,0.02820511269605569,0.058247096012334854,0.10822520177321858,-0.011868405165038785,0.005126367024381087,-0.023149982759142894,0.025521524398802092,-0.010816287765499817,0.0342373796562204,0.04652484073907157,-0.025228598875146144,0.05222565096297627,0.050132852352389096
57,0.20435336333264192,0.37962090387707204,0.13285387287565745,0.018247637154143858,0.17898662577452165,-0.06347134314392758,0.08631873727492224,-0.37104958930638066,0.5845861727452876,0.012796652670676307,0.3003502940048777,0.6537563020667629,-0.16131565406652007,0.2153343080517371,-0.016254628997608503,-0.3888872689221321,-0.008511793874396262,-0.07985879385504677,-0.053845070963302766,-0.1907177058987315,-0.21346336344404,0.04461557115461706,-0.31826971701578205,-0.16687341858753535,-0.5452444093806911,-0.35338612488272225,-0.0025685059631910157,-0.12420289427688731,-0.3498887039727584,-0.2983107341646534,0.1488818723380988,0.08541734932908515,-0.058329820487712195,0.18796355359745953,-0.3743007511516731,0.00860908179938725,-0.2382987503050631,-0.17319406996334494,0.1093658479659054,-0.05258368540041112,0.01354164689093991,0.1471943455765826,-0.007235329300281572,-0.05758591695316933,-0.11671932412184555,0.014252631715366325,-0.09174542146033991,0.12633662348274644,-0.10476902606364277,-0.01968541276138773,-0.02160261189155412,-0.057087134249492265,0.01024921728173906,-0.050201629453502865,-0.012398757179611546,-0.018675342260989155,-0.11558445911146023,-0.052611913216799866,0.052729255025792385,-0.09155812939213959,-0.0733328614587931,-0.13163034054315573,0.023540668563575912,-0.0005834960314306635,-0.015707448472870617,-0.06730907000965367,-0.04499777943779375,0.14007556692382117,0.09664994155292359,0.05197238053057928,0.004358686067674089,0.047179996484241864,0.0434474086788768,0.03228388099861329,-0.06466478224191814,0.0021813344788326485,-0.04230709219147311,0.036100208015368125,0.08052367174812324,-0.10103581471013265,0.11467501210186284
58,0.2551065801162739,-0.46390280633543257,0.3070471160850982,0.05606574498371998,0.2403574908335844,-0.14213892958350385,-0.14447927822564127,0.011615546313765832,0.05841143466388261,-0.14949975075184238,0.04614031173017181,-0.12410387242051542,-0.04594450114302322,-0.018344971860402418,-0.019023232409698408,-0.04333943818611013,-0.0036053473909537356,0.08703081720885335,-0.13069806520450822,-0.06441767581810319,0.04068507950156877,-0.03756387012659259,-0.0620676317793831,-0.046332779236698145,-0.007561446353149048,-0.038253256336493326,0.11234595011876566,0.05872434023306772,-0.004306246999359367,0.0012682281062065433,-0.06039691896329153,-0.04197759650391014,0.09364286372469573,0.01719908382240986,0.02259174720115054,0.03622981864097786,-0.02402357838001604,-0.06034338422336667,-0.06419478444559734,-0.10462866070594473,-0.05922440591616182,-0.029142868522629616,0.007113739181451169,-0.03731186609934076,0.009923985663190065,0.03454376417996644,0.004326267303582074,-0.10227134733981343,-0.012354374855531678,-0.016880313953700127,0.017198517974854704,-0.081860494663492,-0.00016418333460115067,0.019611483983469152,-0.00395509943017462,0.0618771077646583,0.01818863497072431,0.04723095025293745,-0.05238820461943107,-0.03427429592284686,-0.0003242203728480797,0.0019204503145777005,0.01401639118077013,0.01716787578370609,0.03260102351817717,0.025174873695828617,0.034586103291358875,0.056104484796029606,0.019510552696150287,0.03200431983303122,0.05990461458522795,0.029507565028843122,0.02068158575659672,0.0003357016489617789,0.017725480216235788,0.013735799590197939,0.029077665326491118,0.03266534662311986,-0.012361654226148953,0.03410905662088711,-0.01552289728105766
59,-0.3783597078611262,-0.18689713399441724,0.6027664699293425,0.37796373024758456,-0.26135790466433206,0.20612082264577428,-0.09759501655368426,-0.08222103478254315,0.14462566440562746,-0.10341523009318503,0.07939775096285202,-0.053460144503129935,-0.019973361523891075,-0.015287757574847544,0.015849728553928234,-0.008412060578614567,0.060389667996930275,0.005080577936004252,0.020987201920635055,0.047050236748658145,0.04936854963146311,0.025660576704591907,-0.0376653344158832,0.05490262576243143,0.021771743669417237,-0.05354193998108147,-0.06428404587798389,-0.08526123329807617,-0.05454474172430386,0.007313391416740651,-0.06633371753592857,-0.023118912928852774,0.012191743589875119,-0.026422145970977147,-0.027054286962917007,-0.02803378599118111,0.009379413538756562,-0.03196710362499196,-0.015474448892959904,0.0007359571957889204,-0.03285480656901653,0.04860098935315478,-0.011484810512090625,0.0472915413540986,-0.012305665829351508,-0.04278631331715431,0.05913190514269122,-0.008755982576570525,-0.05384722405973704,-0.060085130779117285,-0.006947093723621966,0.10352396574039184,-0.014020778424896994,-0.020499941164953222,-0.05311615725243227,0.03375713491978846,-0.008676420059656157,0.09987492625073055,0.04092198321124486,0.034764831342606176,0.01818623218480632,0.03531606031889205,0.01188666477733415,0.017562858129432698,-0.009984972505197476,0.00562963463828503,-0.03391620294399005,-0.037748221385395984,0.052085950452342676,-0.06872265429673843,0.04868917165471792,0.08684010110332831,-0.026830225779350226,0.02236565885079698,-0.0631784567903802,-0.002868870574592564,-0.04998233382246247,0.006774251822561027,0.002451506811272646,0.008380103017603,-0.031274413095449136
60,0.5778939008799452,0.05311932990870517,0.20242635527465208,-0.4598420134883737,-0.2004821657098941,0.3757090816116297,0.042545259531681694,-0.08455242691482001,0.19349230825470043,-0.018827944795054,-0.24583140636570325,-0.054350314935244025,-0.043853549315042435,0.08060296248162017,0.13484436813419676,-0.13978453310689118,0.09844744090437785,-0.1026102066609043,0.0223640660196533,-0.012896969794941754,0.006704554638296567,0.022212922119289054,-0.21091733512195815,0.09696262740154404,0.007191471642339929,-0.10508281275943802,0.12534174942752455,0.23154646985221022,-0.13117882903689565,0.01765045936499438,-0.11967508524191124,-0.12938563741910125,0.06750079210263978,-0.06581586432381249,0.0883293238741313,0.06073236096046074,0.08266293386769279,0.030192010998560673,-0.05863701131431442,-0.011778939107115244,0.036985637576767705,0.014200295094597418,-0.0006236879722631974,-0.07816074359308116,-0.02322408050555088,0.006445852134183286,0.048061980438945495,0.00826407568855054,-0.06420458593832751,0.034236754254790835,-0.15859040742710312,-0.008477052717815597,0.037474805068946515,-0.07537659520435666,-0.002788768417568618,0.015190191341393195,0.03905941345385924,-0.057689954345532736,0.04393922725853415,0.02376951083907285,-0.0651261138496709,-0.06365304575018127,0.08646730157360485,0.022972462775959466,0.05718522427131934,-0.015702359964259338,-0.029147200105638163,0.10229924594171111,0.04239704120186339,-0.002884215154652661,-0.11322676891796651,0.05753389838181444,-0.07350464792447169,0.05128065026809451,0.027448510152236063,0.01967645078273693,0.005473837760443357,0.07428424705019204,-0.023917142124927012,0.09813924733222529,0.02521444993058345
61,-1.1977744591389807,0.30502574177336483,-0.01780536953006523,0.23781124760739192,-0.21579247948050423,0.17519839787963426,0.27895765087745295,0.6296165931599578,0.1858741734553706,0.11944140512983561,0.2711266970279526,0.053401673404762824,-0.2478534370524947,0.022828673885085297,-0.01136518912192518,0.14310184175126786,0.10720003059767921,-0.05035759659914165,-0.1312154733953245,-0.09682947070474734,-0.06103451810045391,0.04850071705631511,0.07250355392210338,0.14468438373417067,-0.09777106005319099,0.0784585922268325,-0.15248989150545264,-0.03006517559280381,-0.007302984289900449,-0.09126185777154157,-0.06333602291916957,-0.09700828538138671,0.027177824420534222,0.1266770176341567,0.012461903005193082,0.009449588836765572,-0.0017492170246596454,0.05189469836611148,-0.13418854850034403,0.07127933348903738,-0.07101122114420202,-0.08094167440353937,0.10948203031084014,-0.05531906087638598,-0.003300594611935901,0.015730493958173483,-0.055520522773219554,0.0448698219895558,-0.020324141270177735,-0.0504318217358269,-0.022871456926617136,-0.05856320517780337,-0.018731068824617742,-0.06943350380974721,0.008927786859070063,-0.06294893817720813,0.0023382064598334567,-0.008559272525472738,0.00949504407029955,0.04585951274649014,-0.05305178876264611,0.0007681338363099662,0.01575077511552144,0.01294252300558326,-0.05650986577443697,0.11037740746712599,0.07754063197849971,-0.017469524312857518,-0.08836841545399017,-0.0058357113515972725,-0.10863820102538777,-0.09344524201801578,-0.04903431916710673,0.002068124415626377,-0.028586771176648578,0.028846458963231597,-0.0024075782208536076,-0.029907006072740903,0.06384284442806037,0.05163663174699881,0.09508076825242087
62,2.9820415449679234,1.5549993135015074,0.01765964916048765,0.1423326386605753,-0.6865622401142878,-0.19051162803028446,-0.18966843429250235,0.16441108845080987,-0.28291397850413463,-0.41618714740764695,0.16591002906357102,0.22359157810650912,0.21321483200871533,-0.2806614414322586,0.4954795394427264,-0.17362074681251943,-0.0004191151471301726,0.09414481739842868,0.2560427710765814,-0.0024697452482620517,0.1350302893114726,0.5020679567288314,-0.18636093269310572,-0.4604988426749629,-0.0623776877273911,0.36621049263932265,0.05519419911923513,-0.13100641016353437,0.07016296132366377,0.16195605459616477,0.08787774324103229,-0.13574668730404607,0.3242110962061426,-0.14691710859422294,0.11078752319421967,0.05985382448245604,0.04060914902641781,0.024567187902394913,-0.06659355233518675,0.015599763975115382,-0.18295252802810905,0.27471054819420015,0.0636623418386453,0.23876091143962044,0.012362938346570483,-0.13565990430052594,-0.2820421116778521,0.1015497237491753,0.27134078796312233,-0.11644945505574482,-0.0761887974519997,0.07319019862059715,0.039911104008486846,0.08830793259028806,0.10971865265063536,0.14134570099316957,0.13258093613704516,-0.08510607940294067,0.29537451302227824,-0.2765811348799788,0.07376954170135488,-0.10645252818606277,0.16048520142815637,-0.04174585159866507,-0.060320502807888046,0.11470954990412534,0.1435362095727098,-0.09479838311764793,-0.08836679322171909,-0.0513849673594914,-0.07493697209154386,0.1369897483341155,0.11864214099621273,0.07618259734592901,0.05865987290858769,0.036706587775096416,-0.02702624121344368,0.014962071188090108,0.0006769227165365117,0.05522163421718697,0.13159177918889853
63,-0.649675017780797,-0.03035430430869011,-0.05104287698355116,0.013124072640660024,-0.1762906450627279,0.06892384802877781,-0.06958078173111956,0.03200067693527702,0.1399592214409194,0.010396082750054401,0.022515738901478493,-0.07514932760083365,0.10438076270481145,0.08232124578496641,0.08005825449869439,-0.205549354147871,-0.12780205206283188,-0.036971287482333935,0.015548956658879202,0.012831176727869773,-0.10408051993362744,-0.02791440497050022,-0.012542371597313503,0.07243212174951597,0.09312724746896824,-0.01728462557151131,0.031681500831171674,0.025829820489667935,-0.061003652938294434,0.10778025150028206,-0.008573068382539887,0.1067196582650272,-0.00900346233898173,-0.018970988398849704,-0.06649653747709243,0.1256563486759664,-0.012378680229543595,0.06227995704378424,0.01069827300211894,-0.0372616548732707,-0.012944589311736195,-0.0036299156652078233,-0.045359384901441355,-0.00217078840966892,-0.0404476431532506,0.047293616102594575,0.0035446119233999633,-0.07057353733011956,-0.021487996068042355,0.03574305467672592,-0.019151879143010597,0.04134647445982538,-0.02772992797321855,0.02347808167994319,-0.03157329294608185,0.025435863026207574,-0.071606584593798,0.015398330859221892,-0.010983667185843995,-0.007156188982776981,-0.032420528149798816,-0.0383724257735553,0.007491054564399257,0.002024602723861216,0.05147203306329215,-0.01552282870382891,-0.01007453478541158,0.0018753511186263192,0.011345825687001394,0.01037067104608464,-0.002994204483268463,0.04189489730149252,-0.013813922810653386,-0.021635076330121066,-0.019184983223650667,-0.020768675402452287,-0.02619104270808247,0.0026456573873417442,-0.024936221470859186,-0.02823981495550833,-0.011986713315373872
64,0.24736549558052928,-0.4390824820472964,0.4301711037959747,-0.2075708655287107,-0.15257287870457664,0.29337328217595166,0.18968330896682728,0.08361721870621766,0.0618486919010347,0.09333769892114786,-0.2678023681903757,0.0640385241807308,-0.0719848387600135,0.04148130090556062,0.09264392165538128,-0.08146772814952817,0.20632337402591974,-0.08214804338440759,-0.07524779387369415,0.12505445675157711,0.036169276741466645,0.10943897030237544,0.08459818207859597,0.01305850195474123,-0.08291203000149876,0.04981489123107776,-0.07773938106541439,0.04700047027426116,-0.1721100461758301,-0.0648782002244175,-0.06987494684203098,-0.052119860588414495,-0.024065222700054983,-0.05027936308208259,-0.005718193110525303,-0.09200606367679859,0.007756985435909751,-0.08680366092660742,0.09807838085825282,0.045211774160276816,0.060172250530743036,0.044003373678091595,-0.04846545726265279,0.10979813407365206,-0.021673063415862913,0.006014279911524375,-0.028429866234759488,-0.0017997178158883926,0.02752197380876153,0.029638626135598842,0.07559592088565104,0.04570861511312905,0.02873871898647278,-0.016212835930025905,0.024829611269246238,0.016892811868302878,0.08963165384255457,-0.03607394190193259,-0.03392021209680382,0.06780845667478011,0.08774963269370004,-0.048886157440260584,0.026968285784661896,0.07787264730089913,-0.007655048664692813,-0.0022452790547248043,-0.001179084419366978,-0.028504500710314944,-0.03295664337091927,0.00546822384868881,-0.044515005893170194,-0.026355871133469728,-0.04077305675323674,-0.029740488208566694,0.03678213964656965,-0.03828996946460677,0.00849269237153618,-0.06061975694918845,-0.01643428939335905,-0.029252624117174324,0.026878444787015218
65,-0.9089643009236439,0.14325396702183535,-0.01302915420578924,0.1025857163325026,-0.10416949830080663,0.04011451911560659,0.0752315463336196,0.0926301262166501,0.029120555766540136,0.05696714133017559,-0.015573440127096267,0.06038373276267747,-0.17297506735688334,-0.07325109198853916,0.016071663405371115,0.033240328047238914,0.06601558824576277,0.08333063478592487,-0.05812508548211429,0.06756877161488592,-0.1047466355579329,0.006989427015534345,-0.05452425029174449,-0.001863512312763485,0.03902909506772751,0.10996119111172686,0.1304866656977204,0.22253982339329642,0.0767856488419381,-0.17554213616100908,0.05652713857273332,0.19946421933126102,-0.06964520088127206,-0.11190966761596384,-0.0741540348046129,0.02671321243702704,-0.04895854556315703,0.18463738891176182,0.04245758606990174,-0.04806045405198824,0.025288654225828044,0.029886200045577346,-0.011575312502511289,0.04548343001249648,0.011482100518179633,0.007489171942948993,0.07986660482233092,0.10509383186788782,-0.014093486221385471,-0.02208110009928127,0.022470395951629564,-0.01895326980551324,-0.03899106804723986,0.011257421943940712,0.007226862727233645,0.03978952843521128,-0.011147381818316983,-0.01222457559085609,0.001835782611102778,-0.014951393218918477,-0.02301495231765504,-0.01827368064345735,-0.004209590557951337,-0.018387607819242334,0.02156294785117783,0.03328592891205554,0.03533511019344482,0.009210149076162974,-0.02641464223254107,0.006804596528287737,-0.021761808031128867,-0.009860474820803489,-0.0014286192237581798,-0.0005633338075908735,-0.036944014083175956,-0.027788904583715593,-0.04488879460232542,-0.026854016004788917,-0.02594812279604176,0.04529035699577764,-0.013316314408835479
66,0.5136632739227042,-0.5697282201770923,-0.06256005058683017,-0.09794938627862726,0.02879109694710217,-0.038684211895513035,-0.04111841867091631,0.1432904259745989,-0.04180165879345465,-0.010954405426593795,0.08310578541620764,-0.12358356035425576,-0.09868342777921145,-0.08516067140023312,-0.04029106127860989,-0.01581667167416607,0.03496676474176176,0.030394552413960246,-0.24705715571323209,-0.14954224978136066,-0.07421998726195839,-0.02741495450017749,0.016752634077689853,0.060246097872300126,0.00900576476133283,-0.06510803491246799,-0.10617807638192836,-0.07553212492128529,0.09273786626558042,-0.05735634362388012,0.038191258126106326,-0.038969330776105746,0.06653163765950841,-0.01962556161522976,0.00244350381337195,0.04252447597166579,-0.0483540791302394,0.03341363117027447,-0.08589970837389661,-0.076573843677411,-0.08142259586221029,-0.004065043843981828,-0.03104319715268513,-0.03303612697136249,-0.0024782351367153652,-0.038010939860881755,0.018659383840148116,-0.1015133750975235,0.038509188766661824,0.008932094128099914,-0.01901172888864009,0.00599773202154309,0.01787126799143056,-0.007211317503332435,0.016632038067079923,-0.04601015092193939,0.0020379422588273598,-0.0018804902164876027,-0.015525015741197579,0.018982519265387413,0.009891728647794635,0.040488744480494665,0.00410979760555099,0.0015717746870445946,0.018089042485989807,-0.014122237653633346,-0.019469995512408765,0.005883927441493782,-0.03869026810042676,0.035441963039553624,-0.005200092107240326,-0.06391606674319282,-0.01611061538080957,0.011857727165967072,-0.055309539344159823,0.05132738978267602,-0.04299165698608197,0.08163499682790025,0.026746336491445002,0.06601666800797817,-0.04042534154106163
67,-0.7506846042372167,0.26845550535510776,0.033896727084514404,0.12201953650954202,0.315361382428729,-0.12322506347956903,-0.0017095413288987869,0.18259695365215448,0.29462131739687464,-0.11710546696800372,-0.09274025919388568,-0.05412878114667748,-0.1861034252697621,-0.0946220980011259,0.015572982405494805,-0.06573987517871192,0.12280326662353447,0.10550007930850729,-0.12542664445758095,0.014622626144895828,-0.0638694582823099,-0.10803672810246413,-0.10110031828950329,0.08363011247527428,0.11974272957401148,-0.16399391209978328,-0.14505363549468664,0.0034427566162002414,0.08407307013569826,0.005356410857438747,-0.019006438480640556,-0.20482791516877538,-0.1319501244935793,0.04104842670628031,0.08782910903625703,0.10206758165916831,-0.11654909943815588,0.0907537314157395,-0.052055398893510595,-0.034272059655695054,-0.030893192817629193,0.12212864882517849,-0.07027995847844187,-0.010224436402733936,-0.10933655141283251,-0.04386768592137882,0.022974976442288145,-0.04852774201264382,0.07229032289575286,-0.03267612158087391,-0.004595925663141042,0.020797617737247767,0.06941150989888942,0.06419683288904857,-0.035217560008429766,0.12244025185376925,-0.035379841372309144,0.016217933219596806,-0.043121461516017756,-0.01217454158783811,0.10281240665330614,-0.03009803884061932,-0.028567268106880036,0.005605939250821175,-0.03937399436834349,-0.022495417818147415,0.03875960951184835,0.028446389865142998,0.0067352270195490775,0.013609358306493034,-0.030327581183773475,0.028997501866767434,-0.026471818192152437,0.02278655608450824,-0.04775488888244057,-0.009185805363590776,-0.031630600819575125,-0.008113516125930456,-0.0067088912672487915,-0.004780877938151084,-0.04530345030851676
68,-0.7528756688164449,0.11718021440254617,-0.08547597530796096,0.01668774640023451,0.12526593206598807,-0.06310457039485175,0.025321810033582408,0.14631531168688547,-0.00263869957133056,0.024589656007122093,0.14043622011839138,-0.026081486249394107,-0.1158537861687095,-0.045813799138527754,-0.02798252726227913,0.052038184286757105,-0.0816526393261156,0.0211049466659755,-0.04093785810622556,0.017603448263574663,-0.13886317845853802,-0.05878641518829161,0.15272231921782586,-0.024885434656445153,-0.06586469827318615,0.1398282738373041,0.15779565493073633,0.10758379641705848,0.023162037148130563,0.025409646709873165,0.07301210199411096,0.12744330437469464,-0.19546754161333868,-0.0835293314231982,0.010630387208026643,-0.008411274531962573,0.12601663965014323,-0.020015112275227717,-0.017045757068429056,-0.022900503784901147,0.060248862360404894,-0.004612885332427493,-0.043154878900972485,0.030300345070793277,0.041290661244624195,-0.008158380942220936,-0.026696889522022392,0.13196226134327838,-4.298711410184592e-05,-0.13314200499685075,0.06713598141995825,-0.05461152375772911,-0.070593946609062,-0.08940302019983969,-0.0046194799130579965,0.01933301320120624,-0.05813911095783138,0.04933125583022446,0.03206120611759797,-0.03320531971094495,-0.03006873666765245,0.03221020082598415,-0.007276506317139159,-0.05062538634339802,-0.03982770809466028,0.0023235808004016868,-0.004257868017752938,-0.11822141670358173,-0.021744705101715757,-0.09074432469563874,-0.030376438968021707,0.12330811930767935,-0.07156061960898046,-0.03865419208246028,0.03483441774431562,0.028074766252055905,0.02737060194257418,-0.04070386471164232,-0.020769826958558835,-0.017971963786870486,0.05258440976436024
69,-0.8350746085376834,0.029627617060132134,1.0180603035463627,0.30222065329839454,-0.11632471339398585,0.2320120324397566,0.1597468744149038,-0.032159996300758324,-0.14505164389050476,0.0327600264167346,0.15453205162737793,-0.09765151580785013,0.0653267986422525,-0.06756234659213363,-0.0546637249440388,-0.13055105649334756,-0.023603882201132152,-0.07726238166493306,0.017200853222469666,-0.08383742811474051,0.07603923038962233,-0.046413185345340655,0.04572360955133485,-0.008522014278439322,0.049885544509551585,-0.10585486643011541,0.006029967357159179,-0.00599559635192766,0.03769905425637107,0.209337515266865,0.03282535224414132,0.07839811276932979,0.004015019327531099,-0.05563289966011716,-0.13092623218874203,0.19192630497481566,0.044653701519324525,-0.009001526807791154,0.03258865546350865,-0.1419451650193028,0.03092030278261489,0.073982889192954,-0.12177312844588994,0.04403130247340937,0.03402069756150769,-0.037267615033715194,0.09216348448736256,0.062494239269857955,0.051553303565671324,-0.004425217657188082,0.010811133817730582,-0.07284212534448904,-0.06238895449365979,-0.06841297188488112,0.009985871812509216,-0.10971054171357882,0.06018747193157483,0.03993352473685941,-0.04978991863448667,-0.07854014325039953,-0.1538067427287969,0.07889418359522275,0.09195330063167372,-0.03959147219449337,0.09081320850992561,-0.0020116807922709295,0.021691681131974984,-0.024129822037930567,-0.03578535311938655,0.009265968166303405,-0.01831414368863837,-0.000822308423056807,0.039860589951899304,-0.04028841333471239,-0.04310571063254853,-0.1104270082408957,-0.053482655946581574,-0.05896951612983376,-0.0006209571054084821,0.03665005977569387,0.02638940558357685
70,-1.0992236013699672,0.39757051723467457,0.03568503981717013,0.45426322458920604,-0.09201240021312283,0.11967602200525403,-0.3597958546230237,-0.4106215356325181,-0.3134076671250886,0.19616120545772145,-0.04337257108115312,-0.05223412711208394,0.3051193676802989,0.14292841653754051,-0.036393808868650936,0.2110730712280921,0.17419177389723883,0.1277199745560762,-0.05170791814023174,0.08623883728122599,-0.22348765101514848,0.6969083568907685,-0.663897187739607,0.7153144098219887,0.5232964052251758,-0.16356761497438338,0.008577631056010946,-0.07395229006621862,0.14535375117142316,-0.4286482266236754,0.01814034694997013,0.15397542460324937,0.18267857301303062,-0.18814886636012346,-0.20840155547843428,-0.4501484923734053,-0.2793286541517699,0.058653185836358326,-0.35755018866871613,0.0023610768130539147,-0.03728198944946461,0.9273668145437669,-0.3762059882122323,0.40099722120130654,-0.008603283895654278,0.4309750964729061,0.13479061210628726,-0.02477242822399887,-0.21749917431043,-0.15993406834076584,0.051060945679156644,0.03830837251751065,-0.17268778198220194,-0.15179473317535905,0.11575635412404288,0.19357594601096856,0.6599625735274512,0.019720123475484918,-0.43410452637973,-0.06769920179590946,-0.22709856002175363,-0.16178780386695377,-0.03427947414472876,-0.2155470449330254,-0.2571045032182313,0.033373899455494745,-0.22872069157843247,-0.002686241079016733,0.020899195262307612,0.20843729828056942,0.11922667023793317,0.10039260425071683,0.09588164455944585,-0.28210446490451063,-0.18366465394617681,0.30112342662367775,0.23259891959003068,0.018727830171889167,-0.05973248577959163,0.1475930328608502,-0.05630327527535751
