,1,2,3,4,5,6,7,8,9,10,11,12,13,14,15,16,17,18,19,20,21,22,23,24,25,26,27,28,29,30,31,32,33,34,35,36,37,38,39,40,41,42,43,44,45,46,47,48,49,50,51,52,53,54,55,56,57,58,59,60,61,62,63,64,65,66,67,68,69,70,71,72,73,74,75,76,77,78,79,80,81,82,83,84,85,86,87,88,89,90,91,92,93,94,95,96,97,98,99,100,101,102,103,104,105,106,107,108,109,110,111,112,113,114,115,116,117,118,119,120,121,122,123,124,125,126,127,128,129,130,131,132,133,134,135,136,137,138,139,140,141,142,143,144,145,146,147,148,149,150,151,152,153,154,155,156,157,158,159,160,161,162,163,164,165,166,167,168,169,170,171,172,173,174,175,176,177,178,179,180,181,182,183,184,185,186,187,188,189,190,191,192,193,194,195,196,197,198,199,200,201,202,203,204,205,206,207,208,209,210,211,212,213
0,0.0,10.0,950.0,1074.0,274.98686837334213,782.0,-0.3197528109794855,-1.432465982384265,325.8215859513497,1.0,84.0,9.0,9.0,437.75,750.4375,189.77777777777777,14365.728395061727,113.55555555555556,14542.913580246914,146.5,1860.75,9.0,1068.75,1096.0,357.88257501588424,1248.0,0.7317899046839483,0.0791481812492853,613.6840002216423,1.0,37.0,9.0,8.0,227.25,14473.9375,130.25,9091.4375,174.66666666666666,2264.0,9.0,1068.75,1096.0,358.05018852110663,1250.0,0.7275467330569092,0.0796112016311143,271.700206877286,1.0,77.0,9.0,8.0,499.25,18027.9375,226.5,9593.75,129.5,9043.75,224.44444444444449,19228.24691358024,9.0,1068.5,1095.0,358.0150136516624,1250.0,0.7298148074426684,0.0828495148745931,65.97544742704893,1.0,54.0,9.0,8.0,189.25,6514.9375,102.25,6335.4375,11.0,856.0,779.0,293.2930275338983,810.0,0.2269631501530455,-1.5575004467394202,93.85456865851587,1.0,-10.0,11.0,10.0,365.6,1809.44,140.4,6305.44,82.4,5499.04,172.72727272727272,1851.834710743802,10.0,950.0,828.0,397.79503376599473,1334.0,0.9032889699090932,-0.0082997293606585,395.6529254366282,1.0,24.0,10.0,9.0,400.8888888888889,3298.7654320987654,204.0,2210.6666666666665,118.88888888888889,2810.765432098766,199.6,1639.0399999999995,9.0,1068.5,1095.0,357.1522784471632,1246.0,0.7298807724577835,0.0790152747044983,256.3976405097148,1.0,87.0,9.0,8.0,437.75,2857.4375,283.25,10666.9375,159.25,8959.9375,111.33333333333331,1314.6666666666663,9.0,1068.75,1096.0,357.18613844884857,1246.0,0.7276121946438573,0.0758149262846954,166.38131241917426,1.0,35.0,9.0,8.0,238.5,14230.75,115.0,11295.0,9.0,1068.5,1097.0,357.4545425645057,1248.0,0.7237318942309758,0.075657562916835,303.1214910271535,1.0,26.0,9.0,8.0,214.75,9343.9375,88.5,9203.75,9.0,1068.75,1097.0,358.26099075952993,1250.0,0.7255705308020987,0.0733853257680379,1276.895548634493,1.0,77.0,9.0,5.0,108.88888888888889,2383.20987654321,10.0,950.2222222222222,1022.0,210.0929835296625,650.0,-0.338865208071348,-1.202183658159712,1120.8523122638494,1.0,54.0,9.0,9.0,96.66666666666669,5345.777777777777,10.0,950.2222222222222,1074.0,259.47373139481886,678.0,-0.3285941370199656,-1.5303117425088624,991.3094671399576,1.0,172.0,10.0,9.0,252.22222222222223,10656.395061728395,87.77777777777777,10339.061728395063,135.8,4315.56
1,0.0,17.0,574.5,582.0,104.91305924430952,378.0,0.1583125894682026,-0.6962953949082413,336.5694138735095,1.0,32.0,10.0,16.0,312.22222222222223,4083.061728395061,103.75,2232.9375,31.875,3983.234375,99.8,5173.959999999999,17.0,574.5,581.0,106.51408357583516,384.0,0.09953585133079,-0.7015886634170174,545.9283352472484,0.9411764705882352,19.0,9.0,15.0,83.0,1772.428571428571,-2.2857142857142856,2120.489795918368,34.666666666666664,1278.2222222222222,17.0,574.5,578.0,108.92543321006347,392.0,0.066099916799418,-0.7340170462104534,215.7178638123562,0.8823529411764706,-4.0,17.0,16.0,283.2,5493.759999999999,95.73333333333332,1188.728888888889,-7.066666666666666,3101.795555555555,28.23529411764705,1447.474048442907,13.0,766.3333333333334,703.0,258.0708343760595,824.0,0.5100592087694297,-1.095316164639576,-25.240559002245167,1.0,-75.0,13.0,11.0,157.2,4166.56,68.36363636363636,5335.140495867769,17.0,574.625,580.0,107.5888441010498,390.0,0.0299430462577393,-0.6887824309596033,180.57453483898348,0.9411764705882352,-13.0,17.0,16.0,357.3333333333333,2754.488888888889,122.66666666666669,2731.555555555555,41.333333333333336,2296.355555555556,102.3529411764706,2047.1695501730107,17.0,574.625,581.0,106.90818198341977,386.0,0.0788303749491647,-0.6986789461203076,379.8141788617799,0.9411764705882352,7.0,17.0,16.0,279.3333333333333,3852.088888888889,105.33333333333331,2380.0888888888885,3.6,2623.04,38.11764705882353,1660.9273356401386,17.0,574.625,581.0,105.38908565406572,382.0,0.1301499019647164,-0.6822709850722686,131.05998971616418,0.9411764705882352,-4.0,17.0,16.0,358.93333333333334,2091.662222222222,105.73333333333332,1887.395555555556,6.933333333333334,3005.7955555555554,75.76470588235294,2883.2387543252594,17.0,574.625,581.0,106.59436840190013,386.0,0.0828697614152995,-0.6915132866995024,1084.5410115355469,0.9411764705882352,-3.0,14.0,9.0,117.25,4288.9375,-1.25,3068.9375,17.0,574.625,580.0,106.63188723360382,386.0,0.083502351996514,-0.6942375198783335,1498.1666227345238,0.9411764705882352,-5.0,17.0,7.0,95.0,1315.0,-23.0,4035.0,17.0,574.625,581.0,106.58029543494426,384.0,0.0949128497588185,-0.6999548551917862,1642.4909889357557,0.9411764705882352,2.0,17.0,6.0,31.176470588235293,2193.439446366782,17.0,574.625,581.0,106.07949554461504,384.0,0.0959657957954426,-0.6927729373481424,1411.609438307604,0.8823529411764706,-15.0,16.0,3.0,3.75,848.9375,17.0,574.5,581.0,106.49060991467744,386.0,0.1087895173761984,-0.6825727738329426,912.9322508640292,0.8823529411764706,-15.0,15.0,4.0,158.0,3944.0,73.0,6555.0,-1.0666666666666669,697.5288888888889
2,3.0,16.0,593.6,594.0,4.687572221665851,18.0,0.3964210766920236,-0.3126119332642147,94.9098766640305,1.0,-2.0,16.0,15.0,329.6,1502.506666666667,76.26666666666667,1659.662222222222,0.1333333333333333,981.5822222222222,137.375,604.359375,16.0,593.7333333333333,594.0,3.567756842735907,14.0,-0.5034747838467425,-0.1820636060047977,255.1304621831228,1.0,0.0,16.0,15.0,93.33333333333331,2227.0222222222224,-2.1333333333333333,2167.182222222222,91.625,254.609375,16.0,593.7333333333333,594.0,3.785351884420904,14.0,-0.2799525138493095,-0.5838130891760875,164.44350695392333,1.0,0.0,16.0,15.0,396.0,2085.866666666667,98.4,2203.3066666666664,11.466666666666669,2309.5822222222223,106.125,528.234375,16.0,593.8666666666667,594.0,3.964284999284935,14.0,0.1437419579025999,-0.6077578264163321,228.081208422556,0.6875,11.0,0.0,15.0,125.8,1275.56,43.8,1481.16,16.0,593.7333333333333,594.0,3.567756842735907,14.0,-0.5034747838467425,-0.1820636060047977,274.34703442181194,0.8125,-3.0,4.0,15.0,217.3333333333333,1350.2222222222224,123.0,2219.0,68.5,2022.0833333333333,-15.333333333333334,0.888888888888889,16.0,593.7333333333333,594.0,3.7142368739157647,14.0,-0.3046696155062249,-0.4057883409501484,208.80205370692047,1.0,0.0,16.0,15.0,405.2,2445.76,88.26666666666667,2458.0622222222223,-3.866666666666666,2396.515555555556,88.25,1101.4375,16.0,593.7333333333333,596.0,7.113055289786209,28.0,-1.2419698268808117,1.474650963070813,28.604749886718736,0.9375,2.0,16.0,15.0,375.7142857142857,1935.3469387755104,142.14285714285714,2859.6938775510203,83.85714285714286,3235.122448979592,98.0,740.5,16.0,593.8666666666667,594.0,3.8964371189873215,16.0,-0.0685988688137946,-0.0315994712854235,20.485677366188217,0.9375,2.0,16.0,15.0,171.0,1892.428571428572,112.85714285714286,2006.122448979592,16.0,594.0,594.0,4.0,14.0,0.25,-0.7000000000000002,6.844699995973367,1.0,2.0,16.0,15.0,90.0,1492.8,-0.6666666666666666,2230.2222222222217,16.0,593.8666666666667,594.0,3.7570674142947658,14.0,0.1567937802887074,-0.4531245043113032,194.2245607613648,1.0,0.0,16.0,15.0,82.375,49.109375,16.0,593.8666666666667,594.0,3.7570674142947658,14.0,0.217133461984763,-0.3803177483519362,257.6222270030638,1.0,-2.0,16.0,15.0,81.125,107.984375,16.0,593.7333333333333,594.0,3.714236873915765,14.0,0.1324891859717149,-0.0784753958975472,338.6328332716839,1.0,-4.0,16.0,15.0,122.4,2058.773333333333,12.533333333333331,1360.7822222222223,95.5,68.75
3,3.0,23.0,420.09090909090907,420.0,3.5917720482069835,12.0,-0.0210136089930632,-0.8561415114820279,254.05978716121305,0.8260869565217391,9.0,10.0,0.0,0.0360698854029682,0.0360698854029682,0.013526207026113,0.013526207026113,0.0132444110464024,0.0132444110464024,-21.8,1.16,23.0,420.0,420.0,3.861229196653691,14.0,-0.2274013625631858,-0.7685901249256393,224.422197247542,0.9565217391304348,2.0,13.0,0.0,0.0231072703362765,0.0231072703362765,0.0224497463836182,0.0224497463836182,-10.307692307692308,873.7514792899408,23.0,420.1818181818182,420.0,3.242282636386729,12.0,-0.0190450920257723,-0.7375697163878012,188.23053733902967,0.9565217391304348,1.0,13.0,22.0,295.45454545454544,54.61157024793388,95.14285714285714,216.21768707483,49.42857142857143,353.57823129251705,92.76923076923076,47.10059171597633,23.0,420.09090909090907,420.0,3.642041022547296,12.0,-0.2480239797763502,-0.5939453227356153,164.40056112594309,1.0,0.0,8.0,22.0,135.0,2964.2727272727275,61.54545454545455,270.8842975206611,23.0,420.1818181818182,422.0,3.5628941713209863,12.0,-0.4748278456469388,-0.5989176432291634,180.8894076777693,0.8260869565217391,-12.0,19.0,2.0,306.0,0.0,14.0,0.0,-14.0,0.0,54.31578947368421,2214.8476454293627,23.0,420.1818181818182,420.0,3.9958656319701658,16.0,0.250965211560022,-0.1027223743939931,170.77612439241852,0.8260869565217391,0.0,5.0,22.0,257.5,5420.75,81.33333333333333,131.55555555555557,42.11111111111112,192.20987654321,66.0,1950.4,22.0,419.9047619047619,420.0,3.877956775524254,14.0,0.184739308152274,-0.7384112705732093,50.47271498576394,0.1818181818181818,0.0219800864174337,0.0,19.0,0.0465902686455006,0.0465902686455006,53.333333333333336,491.5555555555556,17.333333333333332,640.8888888888889,0.0341912455382303,0.0341912455382303,23.0,420.1818181818182,421.0,3.712832337574934,12.0,-0.1328184851019075,-1.0441833583492908,151.88396838429827,0.0,0.0357880894232575,0.0,22.0,0.0326883336464399,0.0326883336464399,0.0320308096937817,0.0320308096937817,23.0,420.09090909090907,420.0,3.642041022547296,12.0,-0.2480239797763502,-0.5939453227356153,373.07888591112993,0.1304347826086956,14.0,0.0,19.0,17.0,1.0,-16.0,0.0,23.0,420.09090909090907,421.0,3.740552838443815,12.0,-0.2744173617353386,-0.7738957780709272,565.7137078538592,0.217391304347826,-11.0,0.0,7.0,0.0459327446928423,0.0459327446928423,23.0,420.09090909090907,420.0,3.883638066053423,14.0,-0.0267815797638727,-0.5486832051041466,502.97323911966777,0.7391304347826086,-3.0,1.0,6.0,-22.0,0.0,23.0,420.1818181818182,421.0,4.130115160582017,16.0,-0.2457072296722709,-0.5738687578871446,325.3699992271379,0.7391304347826086,-9.0,6.0,4.0,40.66666666666666,1120.888888888889,5.333333333333333,1504.8888888888887,12.0,1464.0
4,1.0,9.0,1068.75,1075.0,25.118469300496795,76.0,-0.276816018031788,-1.2713985046957323,461.1308139623259,1.0,-1.0,9.0,8.0,427.25,27.9375,133.0,157.0,36.5,101.75,125.11111111111111,169.87654320987656,9.0,1068.5,1074.0,23.82750511488771,72.0,-0.1368820935700269,-1.301781639382787,45.83462092965979,1.0,-3.0,9.0,8.0,88.25,38.4375,-44.75,30.9375,162.44444444444446,278.9135802469136,9.0,1068.75,1075.0,24.391340676559786,74.0,-0.219830486607868,-1.2872643420508825,136.51134621625422,1.0,-2.0,9.0,8.0,320.0,4175.0,133.0,5688.0,48.25,4465.4375,-26.88888888888889,5.432098765432098,9.0,1069.0,1075.0,24.31049156228644,74.0,-0.2630937786637198,-1.2472880002061375,135.46805106029967,1.0,2.0,5.0,8.0,244.5,6833.75,140.0,10315.0,9.0,1068.75,1076.0,24.89854413414568,76.0,-0.2783369363713389,-1.2562607407326698,462.490215168968,1.0,17.0,9.0,8.0,417.5,13.75,121.25,20.9375,48.5,64.75,49.77777777777778,4552.395061728395,9.0,1068.75,1075.0,24.67665901211102,76.0,-0.2666968202476965,-1.2135587988076908,87.86078544869173,1.0,2.0,8.0,8.0,472.2857142857143,4799.34693877551,129.5,9118.75,-1.0,16066.0,169.25,5031.9375,9.0,1068.5,1075.0,24.611988948477936,74.0,-0.2338733170606708,-1.318012532599185,190.4944779216016,1.0,3.0,9.0,8.0,424.25,2441.4375,51.5,55.75,-29.0,5.0,59.55555555555556,3148.246913580248,9.0,1068.75,1076.0,24.89854413414568,76.0,-0.2783369363713389,-1.2562607407326698,739.1573250714549,1.0,-12.0,9.0,8.0,108.5,6867.75,-15.5,9926.75,9.0,1068.75,1075.0,23.76841391426866,72.0,-0.2942082833174448,-1.2718124840666292,1194.3581490085992,1.0,-24.0,9.0,7.0,209.42857142857144,10276.244897959185,135.14285714285714,15114.12244897959,9.0,1068.75,1075.0,24.49362161869902,74.0,-0.2431689877747113,-1.2934202080574488,1214.6756996585557,1.0,-17.0,9.0,8.0,157.33333333333334,736.0,9.0,1068.75,1075.0,23.85241077962561,72.0,-0.2855843490585303,-1.2927111741998325,1082.315736806796,1.0,1.0,9.0,8.0,134.66666666666666,29.33333333333333,9.0,1068.75,1076.0,24.89854413414568,76.0,-0.2783369363713389,-1.2562607407326698,877.5125138378825,1.0,2.0,9.0,8.0,122.0,671.0,19.75,569.4375,136.44444444444446,43.358024691358025
5,3.0,19.0,510.77777777777777,512.0,7.091117726937267,30.0,-0.059890950800758,-0.2698506973971049,150.55331230438992,1.0,0.0,19.0,18.0,309.22222222222223,1524.5061728395062,85.0,1822.7777777777776,-9.22222222222222,1408.9506172839508,61.578947368421055,1179.1911357340718,19.0,510.8888888888889,511.0,6.83852557930183,26.0,0.2943823035358998,-0.616913969418242,261.2148232664778,1.0,3.0,19.0,18.0,109.88888888888889,1485.5432098765434,3.0,1279.6666666666667,99.26315789473684,815.6675900277008,19.0,510.6666666666667,510.0,7.571877794400365,30.0,0.0238882028847962,-0.6742383270236165,211.14612693646183,1.0,-1.0,15.0,18.0,238.13333333333333,2642.915555555556,147.22222222222223,495.1728395061728,93.33333333333331,386.6666666666667,94.53333333333332,2810.915555555556,19.0,510.77777777777777,512.0,7.122386893572154,28.0,0.129919934609963,-0.5823648010786142,241.6680814027204,0.5263157894736842,-2.0,1.0,18.0,97.0,297.0,18.0,760.0,19.0,510.8888888888889,512.0,7.187094057242769,28.0,0.146646499348245,-0.7472553184488686,61.27161866835378,1.0,0.0,19.0,18.0,291.44444444444446,1045.2469135802469,80.33333333333333,777.8888888888889,21.666666666666668,917.0,83.05263157894737,428.78670360110806,19.0,510.8888888888889,512.0,6.870944370551247,28.0,0.1221632702391221,-0.3833113040738101,212.84353804735176,1.0,-3.0,19.0,18.0,284.6666666666667,2430.222222222222,101.44444444444444,1573.2469135802469,11.0,1697.0,107.26315789473684,1314.6149584487534,19.0,510.77777777777777,512.0,7.184516960145428,30.0,0.0418870340090015,-0.3839046824105661,63.48249109552159,1.0,2.0,19.0,18.0,249.66666666666663,1870.3333333333333,86.66666666666667,1145.7777777777778,10.333333333333334,1948.1111111111115,21.68421052631579,1278.426592797784,19.0,510.8888888888889,512.0,6.9032109186706965,28.0,0.1573863148157397,-0.5027249053665899,204.268036174984,1.0,2.0,19.0,18.0,91.11111111111111,1435.654320987654,-13.22222222222222,2958.728395061729,19.0,510.8888888888889,512.0,6.9032109186706965,28.0,0.0763246901861775,-0.5549142258852604,276.7757379274314,1.0,4.0,19.0,18.0,94.88888888888889,1109.432098765432,-13.22222222222222,1725.8395061728395,19.0,510.8888888888889,513.0,7.248669524577818,30.0,-0.0663273853145964,-0.36110365198711,328.05704009974653,1.0,5.0,19.0,18.0,56.0,975.157894736842,19.0,510.8888888888889,513.0,6.870944370551247,28.0,0.1468259742004425,-0.4678620822464618,347.0241605366984,1.0,0.0,19.0,18.0,69.26315789473684,483.8781163434903,19.0,510.8888888888889,512.0,6.870944370551247,28.0,0.0810587636369213,-0.433829064617218,309.2100056265442,1.0,1.0,19.0,18.0,93.66666666666669,1358.3333333333333,-12.333333333333334,1217.4444444444443,80.3157894736842,877.584487534626
6,2.0,13.0,762.1666666666666,759.0,8.10178306849109,24.0,0.646573411432507,-0.9894230939711028,410.3315155117615,1.0,0.0,13.0,12.0,405.6666666666667,693.888888888889,77.33333333333333,752.2222222222222,2.833333333333333,804.3055555555557,130.30769230769232,83.59763313609467,13.0,762.1666666666666,758.0,8.503267345882731,26.0,0.644905131130342,-1.00215080297578,200.1388909912361,1.0,-2.0,13.0,12.0,72.16666666666667,20.30555555555556,-35.0,13.0,123.53846153846152,181.01775147929,13.0,762.1666666666666,766.0,25.78705532282083,86.0,-0.3760173838502417,-0.4095009950700756,25.19461856743878,1.0,9.0,13.0,12.0,245.3333333333333,4085.555555555555,190.54545454545453,1424.7933884297522,127.0,3765.0,64.3076923076923,3182.674556213017,13.0,762.1666666666666,759.0,8.424501304066741,26.0,0.5438583240061623,-1.1339524588217618,284.5857454617501,1.0,-11.0,3.0,12.0,198.72727272727272,478.74380165289256,121.83333333333331,2042.9722222222224,13.0,762.1666666666666,759.0,8.019074482479606,24.0,0.4431299058795714,-1.2786158446417075,311.5232952205696,1.0,-4.0,13.0,12.0,392.0,1493.3333333333333,210.5,3918.0833333333335,163.16666666666666,5058.972222222223,134.30769230769232,314.9822485207101,13.0,762.3333333333334,768.0,80.70453656531473,244.0,-0.1276445588200836,-0.9885002064356408,125.59229247793218,1.0,-16.0,13.0,12.0,237.16666666666663,3356.972222222222,108.33333333333331,1582.5555555555554,44.16666666666666,1643.6388888888887,35.4,4015.24,13.0,762.3333333333334,762.0,11.967548714010826,44.0,0.656978788292378,-0.0336089643164387,177.9327782621438,1.0,1.0,12.0,12.0,378.54545454545456,12547.702479338845,61.5,514.75,-12.166666666666666,625.6388888888888,134.66666666666666,9636.888888888889,13.0,762.1666666666666,759.0,8.620067027323834,28.0,0.5425433595569896,-0.9560531749497678,374.9095652693613,1.0,1.0,13.0,12.0,70.66666666666667,218.8888888888889,-45.5,310.0833333333333,13.0,762.3333333333334,758.0,8.399735445569434,24.0,0.4703310233493988,-1.333503627007262,651.6521331174097,1.0,0.0,13.0,12.0,77.5,38.083333333333336,-35.666666666666664,14.555555555555555,13.0,762.1666666666666,759.0,8.424501304066741,26.0,0.5438583240061623,-1.1339524588217618,781.4030478056134,1.0,-2.0,13.0,12.0,124.76923076923076,24.946745562130182,13.0,762.1666666666666,758.0,8.463975950396414,24.0,0.6808653525566115,-1.017295569353135,646.4645291994714,1.0,-2.0,13.0,12.0,116.6153846153846,85.77514792899409,13.0,762.1666666666666,758.0,8.463975950396414,24.0,0.6808653525566115,-1.017295569353135,450.5682091382961,1.0,-2.0,13.0,12.0,72.33333333333333,23.222222222222225,-34.666666666666664,15.555555555555552,120.3076923076923,178.36686390532537
7,3.0,20.0,468.0,468.0,3.178877656956105,10.0,0.4718646522044218,-0.8229166666666665,325.5044412277514,1.0,0.0,14.0,19.0,305.2307692307692,45.869822485207095,106.10526315789474,81.88365650969529,29.05263157894737,4.786703601108033,73.28571428571429,38.06122448979591,20.0,468.0,468.0,3.1119464208619965,10.0,0.5867989706634862,-0.7551984877126654,160.36025063885586,1.0,0.0,20.0,19.0,79.36842105263158,1463.180055401662,-39.36842105263158,1656.443213296399,96.6,20.840000000000003,20.0,467.89473684210526,468.0,3.1438283206459112,12.0,0.899972933612885,0.2085553701059779,157.52471306333285,1.0,0.0,20.0,19.0,235.7894736842105,88.797783933518,157.1578947368421,7.711911357340721,85.78947368421052,2.481994459833796,21.0,1113.8,20.0,467.89473684210526,468.0,3.275020881285062,12.0,0.6598246598299743,-0.0885356191516937,125.87116392771928,1.0,0.0,0.0,19.0,86.10526315789474,264.6204986149584,-45.68421052631579,86.42659279778394,20.0,468.0,468.0,3.1119464208619965,10.0,0.5867989706634862,-0.7551984877126654,258.1788612455902,1.0,0.0,11.0,19.0,271.8181818181818,3724.6942148760336,95.15789473684212,4.764542936288089,36.8421052631579,10.65927977839335,61.81818181818182,1776.3305785123966,20.0,468.42105263157896,470.0,9.120917483130302,36.0,-0.1962990079188859,0.161290219574703,52.25229969195409,1.0,2.0,19.0,18.0,281.8888888888889,35.76543209876544,153.55555555555554,7.80246913580247,56.55555555555556,381.6913580246914,72.73684210526316,3105.772853185596,21.0,468.3,468.0,3.809199390948181,12.0,0.6968150264152837,-0.562746004205382,212.2267432955899,0.9523809523809524,0.0,7.0,20.0,387.1428571428572,999.8367346938776,39.5,149.55,-22.2,179.56,90.85714285714286,48.97959183673469,20.0,467.89473684210526,468.0,3.07613456762157,10.0,0.4353944559174268,-0.9442299359948207,297.0824548673453,0.95,1.0,7.0,18.0,57.66666666666666,1024.5555555555557,-12.555555555555555,1196.358024691358,20.0,467.89473684210526,468.0,3.275020881285062,10.0,0.4440667774036884,-0.906832695854106,346.3000314657065,0.95,0.0,19.0,18.0,67.33333333333333,1484.8888888888887,-40.888888888888886,1869.432098765432,20.0,467.89473684210526,468.0,3.275020881285062,10.0,0.4440667774036884,-0.906832695854106,382.49632638629566,1.0,0.0,20.0,19.0,83.7,5.3100000000000005,20.0,467.89473684210526,468.0,3.1438283206459112,12.0,0.899972933612885,0.2085553701059788,390.34446375354617,1.0,2.0,20.0,19.0,83.2,4.960000000000001,20.0,468.0,468.0,3.244428422615251,12.0,0.6657567123206493,-0.1576000000000004,414.11498966972505,1.0,2.0,20.0,19.0,131.57894736842104,10.770083102493077,22.63157894736842,100.23268698060944,81.6,19.040000000000006
8,1.0,9.0,1020.5,1014.0,21.041625412500814,56.0,0.1504640370252679,-1.5370204636401577,435.7448171659064,1.0,-4.0,9.0,8.0,504.5,1948.75,127.5,2258.75,9.75,1424.4375,147.77777777777777,939.9506172839508,9.0,1020.5,1014.0,20.56088519495209,56.0,0.1302042255605798,-1.498668464661944,731.5996149513788,1.0,-4.0,9.0,8.0,109.0,2379.0,-19.0,2289.0,122.22222222222224,7852.839506172841,9.0,1020.75,1015.0,20.950835305543308,56.0,0.1186337564080418,-1.5140129979952974,303.5411731458098,1.0,-8.0,9.0,8.0,480.25,17591.4375,206.25,147.4375,98.25,144.4375,287.77777777777777,17306.172839506173,5.0,1500.5,1062.0,861.242561651478,2094.0,1.1259138923984688,-0.68852742552281,70.7392550881048,1.0,-1.0,5.0,4.0,202.0,6566.0,70.0,4710.0,9.0,1020.0,1014.0,26.645825188948457,66.0,0.2036098365955752,-1.6775798452687958,95.76002077887831,1.0,-11.0,9.0,8.0,471.5,857.75,116.25,3049.4375,44.0,1322.0,192.66666666666663,404.44444444444446,9.0,1020.5,1015.0,20.82666559965853,58.0,0.0503953798230739,-1.4121595561793554,517.2835895687463,1.0,-5.0,9.0,8.0,456.75,1869.9375,184.25,2234.4375,56.5,2246.75,185.3333333333333,501.3333333333333,9.0,1020.75,1016.0,21.23528902558192,58.0,0.0396801541812992,-1.4368219362813957,66.51015947025459,1.0,-2.0,9.0,8.0,525.25,2002.9375,93.5,2019.75,11.25,2110.9375,143.33333333333334,913.7777777777778,9.0,1020.25,1014.0,21.411153635430296,58.0,0.1019956522643114,-1.4826159698785693,671.2335479445386,1.0,-11.0,9.0,8.0,112.5,1800.75,-18.25,1635.4375,9.0,1020.5,1014.0,20.56088519495209,56.0,0.1302042255605798,-1.498668464661944,1087.6303663639983,1.0,-9.0,9.0,8.0,75.75,48.4375,-57.25,38.9375,9.0,1020.5,1014.0,21.71980662897348,60.0,0.1155780945087393,-1.4870332784856304,1477.4003901069284,1.0,-6.0,9.0,8.0,63.0,4522.0,9.0,1020.5,1014.0,20.56088519495209,56.0,0.1302042255605798,-1.498668464661944,1418.2536862275422,1.0,-7.0,9.0,7.0,88.0,4586.666666666667,9.0,1020.5,1014.0,21.041625412500814,56.0,0.1504640370252679,-1.5370204636401577,1162.4970506110371,1.0,-5.0,9.0,7.0,88.28571428571429,1379.9183673469386,-30.571428571428573,1569.9591836734694,134.0,632.8888888888889
9,1.0,9.0,1133.5,1132.0,24.346457647879703,72.0,0.3109373710073573,-1.0428737800937484,614.4032578201843,1.0,0.0,8.0,8.0,545.5,25.75,122.75,22.9375,31.75,6.4375,91.75,1501.4375,9.0,1133.75,1132.0,23.98827838757921,70.0,0.358496204101118,-1.063050578874794,472.3190328530211,1.0,1.0,7.0,8.0,69.0,1224.0,-23.5,1414.75,197.7142857142857,13000.489795918367,9.0,1133.25,1131.0,25.47425170637992,74.0,0.4003056259779737,-1.075521594026508,337.91398879454846,1.0,3.0,7.0,8.0,559.7142857142857,213.061224489796,255.5,4379.75,179.25,6157.9375,330.2857142857143,1830.204081632653,9.0,1133.75,1131.0,25.50367620559828,72.0,0.3707885690445782,-1.175472481587733,194.15978637791355,1.0,0.0,8.0,8.0,198.0,8034.0,124.25,9183.4375,9.0,1133.5,1132.0,24.160918856699137,70.0,0.3669720182789538,-1.089435230571005,378.2081209011415,1.0,-2.0,8.0,8.0,534.5,465.75,125.0,624.0,42.25,595.4375,108.5,2131.75,9.0,1132.0,1131.0,27.712812921102035,84.0,0.2489259217258005,-1.0340576171875,230.84940180498097,1.0,0.0,7.0,8.0,595.1428571428571,30992.97959183673,49.0,88.0,-42.25,40.4375,250.57142857142856,32733.38775510204,9.0,1133.75,1131.0,24.70703341156117,72.0,0.3676440188892529,-1.098772422319747,910.9766265861892,1.0,0.0,3.0,8.0,590.0,354.6666666666667,170.0,4294.0,100.25,3471.4375,188.66666666666663,160.88888888888889,9.0,1133.75,1137.0,20.010934510911778,68.0,-0.1356094861123777,-0.63963377616213,919.8014572564208,1.0,6.0,7.0,8.0,229.75,4.4375,147.75,2.4375,9.0,1133.75,1131.0,24.07150805412905,70.0,0.3558658644736475,-1.089183996345099,1516.0392729970242,1.0,0.0,9.0,8.0,82.0,1316.0,-1.75,1366.4375,9.0,1133.75,1131.0,24.40158806307491,72.0,0.4118203714946325,-1.0450303777183945,1843.388297771501,1.0,0.0,8.0,8.0,47.5,3684.75,9.0,1133.75,1132.0,23.98827838757921,70.0,0.358496204101118,-1.063050578874794,1838.9690354558904,1.0,7.0,8.0,7.0,100.25,1033.4375,10.0,1007.7777777777778,1132.0,245.44099891953115,620.0,-1.3141608295321456,-0.2371770600716702,1116.052893619155,1.0,2.0,8.0,6.0,95.66666666666669,2415.222222222222,-4.0,3508.0,151.25,5289.9375
10,0.0,16.0,618.6666666666666,628.0,113.02074539167084,330.0,0.2043941681276962,-1.4167476650843789,453.2390952709753,1.0,6.0,16.0,12.0,388.3333333333333,4091.222222222223,85.27272727272727,2919.4710743801656,11.333333333333334,3712.222222222222,118.0,5249.0,16.0,618.8,626.0,113.80638529244892,336.0,0.216467555620079,-1.39740837931334,440.29461468307966,1.0,-20.0,15.0,14.0,85.38461538461539,3883.9289940828407,0.5714285714285714,3649.959183673469,136.0,3072.0,16.0,618.8,628.0,116.28195618122928,376.0,0.3754114138030824,-1.0885990935239047,57.81229323902394,1.0,32.0,15.0,15.0,264.7142857142857,6065.489795918367,130.57142857142858,3187.102040816327,74.0,3918.4,85.06666666666666,4009.528888888889,15.0,601.1428571428571,581.0,138.53047995856733,458.0,0.5153429810780374,-0.8697212847661588,36.69484105588652,0.9333333333333332,14.0,12.0,14.0,106.0,1272.6153846153843,27.846153846153847,1952.2840236686395,16.0,618.6666666666666,630.0,113.71699765450876,332.0,0.1950427143542613,-1.4214822185812286,238.74425868258976,1.0,8.0,16.0,14.0,352.42857142857144,1537.8163265306123,137.3846153846154,2892.5443786982246,59.85714285714285,3090.551020408163,138.875,1821.984375,16.0,618.6666666666666,626.0,113.2894032506522,336.0,0.2195926053083365,-1.3879347830991215,222.5237867807388,1.0,54.0,14.0,15.0,388.1666666666667,925.6388888888888,81.53846153846153,2209.9408284023666,6.571428571428571,2821.959183673469,96.71428571428572,4358.061224489797,15.0,607.1428571428571,596.0,109.19893847132995,342.0,0.3448114359876016,-1.1971310015869931,85.69746038122703,0.9333333333333332,-12.0,15.0,14.0,307.38461538461536,5652.544378698225,147.69230769230768,4254.059171597633,58.15384615384615,4283.976331360947,67.33333333333333,3583.822222222223,15.0,607.2857142857143,595.0,107.98573223971276,330.0,0.3366493627191064,-1.253911487883708,277.8134019143047,0.8,-47.0,14.0,14.0,109.16666666666669,1967.6388888888887,10.333333333333334,2241.222222222222,16.0,618.6666666666666,628.0,113.6583574675537,334.0,0.2109612051893263,-1.409212627741733,390.28308729750233,0.9375,-16.0,16.0,15.0,80.18181818181819,1043.9669421487604,-9.384615384615383,1951.0059171597632,16.0,618.6666666666666,628.0,113.72403244501822,332.0,0.2163259217896896,-1.4049242877299877,516.9277902193196,1.0,-14.0,16.0,12.0,128.75,1286.9375,16.0,618.6666666666666,628.0,113.72403244501822,332.0,0.2163259217896896,-1.4049242877299877,488.39650314884886,1.0,32.0,16.0,11.0,145.375,1684.859375,16.0,618.6666666666666,628.0,114.00038986288112,334.0,0.2109759721967981,-1.4079902935067032,506.2859827062869,0.875,-46.0,15.0,9.0,117.33333333333331,6494.222222222223,25.714285714285715,2546.775510204082,132.26666666666668,3174.8622222222216
11,1.0,9.0,1054.5,1042.0,23.637893307145628,66.0,0.6430920930370685,-1.2096620272360104,534.6632252850591,1.0,-30.0,9.0,8.0,441.75,11.4375,301.75,2972.4375,204.5,5325.75,99.11111111111111,4464.987654320988,9.0,1054.5,1042.0,23.637893307145628,66.0,0.6430920930370685,-1.2096620272360104,906.9067391296172,1.0,23.0,9.0,8.0,232.75,11724.9375,157.75,13118.4375,-101.33333333333331,40.88888888888889,9.0,1054.5,1042.0,24.202272620561896,68.0,0.6178719446774299,-1.2457200815571268,493.654236332015,1.0,-16.0,9.0,8.0,462.5,49.75,74.75,3635.9375,-14.5,5859.75,24.444444444444443,6153.580246913581,9.0,1054.25,1042.0,23.3760026522928,64.0,0.6429827791531892,-1.2390000168628883,125.95076648056582,1.0,-20.0,9.0,8.0,82.5,1567.75,-33.25,365.9375,9.0,1054.5,1042.0,23.531893251500183,64.0,0.6109570112206623,-1.3013292297030812,144.9900568413071,1.0,18.0,9.0,8.0,484.8571428571428,910.6938775510204,227.7142857142857,2136.489795918368,153.14285714285714,2904.9795918367345,138.44444444444446,658.469135802469,9.0,1054.5,1042.0,23.637893307145628,66.0,0.6430920930370685,-1.2096620272360104,671.619308042645,1.0,-15.0,9.0,8.0,454.0,12.0,191.0,18705.0,106.25,20868.4375,-75.6,5419.839999999999,9.0,1054.5,1041.0,23.701265788982663,66.0,0.6948415742743208,-1.1692444992670838,539.6988824483961,1.0,-50.0,9.0,8.0,409.25,1541.9375,139.75,13281.4375,76.5,12503.75,-25.11111111111111,1280.0987654320988,9.0,1054.5,1041.0,23.701265788982663,66.0,0.6948415742743208,-1.1692444992670838,1123.2599298831524,1.0,69.0,9.0,1.0,276.0,0.0,58.0,0.0,9.0,1054.5,1042.0,24.202272620561896,68.0,0.6178719446774299,-1.2457200815571268,1214.3870664820374,1.0,-49.0,9.0,2.0,295.0,121.0,111.0,1849.0,9.0,1054.5,1041.0,23.701265788982663,66.0,0.6948415742743208,-1.1692444992670838,1392.4031542753178,1.0,-13.0,9.0,1.0,105.33333333333331,56.888888888888886,9.0,1054.5,1041.0,23.701265788982663,66.0,0.6948415742743208,-1.1692444992670838,1749.2101637018393,1.0,-44.0,9.0,8.0,122.0,21.33333333333333,9.0,1054.5,1042.0,24.202272620561896,68.0,0.6178719446774299,-1.2457200815571268,1592.0790506358364,1.0,-32.0,9.0,8.0,307.75,2904.4375,230.25,3377.4375,125.11111111111111,28.543209876543205
12,0.0,13.0,781.0,767.0,156.3809451307927,556.0,0.5643103966235973,-0.2559569525490075,293.42257017953926,1.0,8.0,13.0,11.0,400.54545454545456,6056.793388429753,174.1818181818182,6406.876033057851,111.63636363636364,5955.504132231404,134.76923076923077,7026.792899408284,13.0,781.3333333333334,764.0,156.07120881899462,560.0,0.5552621345846785,-0.2522324231039876,168.05929888997545,1.0,-6.0,11.0,12.0,144.1818181818182,7932.694214876034,70.36363636363636,5353.322314049587,104.72727272727272,10752.198347107436,13.0,781.0,766.0,153.47421064574118,556.0,0.5135747930350981,-0.2724860967467157,87.70622955927531,1.0,25.0,12.0,11.0,210.0,916.4444444444443,175.55555555555554,6343.802469135803,114.8,6893.76,-25.33333333333333,222.88888888888889,13.0,713.6666666666666,750.0,134.3622797596938,446.0,0.261758350310703,-0.8554286083411271,106.86518715919956,1.0,14.0,11.0,12.0,94.5,1937.4166666666667,36.833333333333336,2788.305555555555,13.0,781.1666666666666,769.0,156.37659316179287,556.0,0.5792407991157505,-0.2466427328010771,222.5122938787124,1.0,6.0,13.0,11.0,396.7272727272728,3255.471074380165,159.63636363636363,5807.140495867769,98.36363636363636,5769.322314049588,146.6153846153846,6819.313609467456,13.0,781.5,754.0,160.84801314698709,600.0,0.2720215163134853,-0.2434633725787494,92.61281897589755,1.0,18.0,12.0,12.0,278.0,9711.272727272728,130.16666666666666,6684.972222222222,71.83333333333333,7828.305555555556,79.0,7598.333333333333,13.0,781.6666666666666,759.0,162.50094016822044,570.0,0.6591074040535695,-0.1743864064707101,453.0753134598888,1.0,18.0,6.0,12.0,318.3333333333333,3065.8888888888887,89.66666666666667,3230.555555555556,-4.833333333333333,1386.3055555555554,13.0,1387.6666666666667,13.0,781.6666666666666,740.0,171.60387201018773,620.0,0.821954685557552,-0.0348901797197251,364.0239729176996,0.9230769230769232,-59.0,10.0,12.0,98.36363636363636,1719.8677685950415,20.90909090909091,2072.99173553719,13.0,774.6666666666666,769.0,143.59975239842473,528.0,0.3813257896009688,-0.333363699489849,141.10591402887647,1.0,61.0,4.0,11.0,102.54545454545456,3592.793388429752,25.63636363636364,5359.8677685950415,13.0,781.3333333333334,768.0,156.75104110942578,562.0,0.5670705874628507,-0.2432318702879192,438.369115437481,1.0,-9.0,4.0,10.0,92.0,5456.0,13.0,781.3333333333334,768.0,156.12886415465343,560.0,0.5540039960138634,-0.2540794851811361,996.3812044204992,0.9230769230769232,-42.0,7.0,8.0,102.28571428571428,7382.204081632653,13.0,781.1666666666666,768.0,156.0009793416553,558.0,0.5368883762000445,-0.2615455726219471,782.22861145124,0.7692307692307693,6.0,9.0,9.0,232.57142857142856,3091.1020408163263,123.42857142857144,5300.2448979591845,72.44444444444444,4917.135802469136
13,3.0,16.0,588.5333333333333,586.0,6.302027892318119,18.0,0.1759438963508168,-1.5485601780571885,335.31823322296725,1.0,-2.0,13.0,10.0,364.57142857142856,1734.530612244898,67.5,2788.75,16.5,2999.75,120.6153846153846,1795.3136094674555,16.0,588.5333333333333,586.0,6.711846905948383,20.0,0.286754366494668,-1.418745471999118,479.7066240417389,1.0,-2.0,16.0,15.0,61.73333333333333,169.5288888888889,-33.6,13.439999999999998,113.125,299.984375,16.0,588.5333333333333,586.0,6.216823054333209,18.0,0.4700622406936421,-1.2674685100912344,223.0897660119637,1.0,2.0,16.0,15.0,326.6666666666667,1642.4888888888888,65.6,500.3733333333333,-30.666666666666668,1020.088888888889,102.375,1350.109375,16.0,588.6666666666666,586.0,13.636552187248634,58.0,0.6707406725128131,0.9644882261113188,28.61377712793894,0.875,-9.0,13.0,15.0,168.76923076923077,820.6390532544378,85.23076923076923,2212.6390532544383,16.0,588.6666666666666,586.0,6.559132733999383,20.0,0.2137788505911881,-1.3745987295949678,215.08641263646496,0.5,-10.0,16.0,15.0,351.7142857142857,64.48979591836735,157.71428571428572,1066.7755102040817,100.0,1149.7142857142858,130.125,602.734375,16.0,588.5333333333333,586.0,6.510162995057975,20.0,0.2717142112224993,-1.3098607607765365,340.96542314670165,1.0,-2.0,16.0,15.0,337.3333333333333,82.48888888888888,62.53333333333333,252.5155555555556,-35.333333333333336,12.622222222222224,115.625,229.609375,16.0,588.5333333333333,586.0,7.499925925560124,20.0,-0.0721007261563585,-1.5871582323899889,35.91361208811772,1.0,-10.0,13.0,15.0,288.7692307692308,5219.408284023668,74.0,1276.2666666666669,-2.2666666666666666,1527.3955555555556,2.3076923076923075,3098.3668639053253,16.0,588.2666666666667,586.0,8.698403429493382,24.0,-0.0757924357384911,-1.5370503031545035,137.4322097411835,1.0,10.0,4.0,15.0,53.333333333333336,805.6888888888888,-6.4,1067.3066666666666,16.0,588.5333333333333,586.0,6.75146074729182,20.0,0.4037415214025864,-1.296357096093509,869.8829418661503,1.0,-6.0,15.0,5.0,88.0,0.0,32.0,0.0,16.0,588.5333333333333,586.0,6.671997868371629,20.0,0.3271186014064728,-1.4506336187977773,1907.6647260961304,0.9375,-2.0,16.0,0.0,28.5,1974.25,16.0,588.5333333333333,586.0,6.591577116964413,18.0,0.1329044893807359,-1.5861376670479266,1157.7264902811164,1.0,-2.0,12.0,2.0,18.5,1042.75,16.0,588.5333333333333,586.0,6.591577116964413,20.0,0.2893308718253522,-1.4469143177051331,719.8322818082472,1.0,0.0,5.0,11.0,53.27272727272727,312.92561983471074,-25.818181818181817,171.9669421487603,56.0,2955.2
14,3.0,26.0,370.32,370.0,2.8102668912400475,10.0,-0.0258833280904035,-0.9524086590366414,250.02721016383552,0.4230769230769231,7.0,16.0,0.0,0.0360698854029682,0.0360698854029682,0.013526207026113,0.013526207026113,0.0132444110464024,0.0132444110464024,-14.5,4.75,26.0,370.32,370.0,3.3313060501851224,12.0,-0.1505690824995906,-0.7630436257548014,609.2547621676081,0.5769230769230769,-6.0,10.0,0.0,0.0231072703362765,0.0231072703362765,0.0224497463836182,0.0224497463836182,-21.2,1.7600000000000002,26.0,370.32,370.0,3.183959798741184,12.0,0.0345481748995419,-0.8078081955922856,492.7894760610972,0.7692307692307693,0.0,26.0,25.0,172.10526315789474,47.77839335180054,70.3157894736842,199.26869806094183,33.1578947368421,579.0803324099722,-19.615384615384617,1.85207100591716,26.0,374.16,370.0,19.348757066023648,102.0,4.544096273452191,19.137451654664343,50.84156488352927,0.2307692307692307,0.038042457260943,22.0,24.0,94.8,516.1600000000001,25.6,39.04,26.0,370.4,370.0,3.3466401061363023,10.0,0.2458755996345243,-1.1881632653061156,107.21011395465896,0.8076923076923077,5.0,26.0,14.0,192.1818181818182,192.33057851239667,27.454545454545453,218.97520661157023,-17.636363636363637,332.2314049586778,-29.76923076923077,1.6390532544378702,26.0,370.32,370.0,3.3313060501851224,12.0,-0.1505690824995906,-0.7630436257548014,544.534243296065,0.6153846153846154,-1.0,26.0,5.0,167.33333333333334,11.555555555555555,61.333333333333336,110.2222222222222,28.0,290.6666666666667,-20.384615384615383,1.85207100591716,26.0,370.4,370.0,4.732863826479693,18.0,-0.094174331241163,-0.8108163265306132,148.85282137408632,0.3076923076923077,14.0,11.0,17.0,212.0,484.0,36.0,306.0,-14.75,321.9375,-5.818181818181818,1566.148760330578,26.0,370.4,370.0,3.622154055254968,12.0,0.0242410666993753,-0.9907792980368816,397.0085985082751,0.1923076923076923,0.0357880894232575,0.0,12.0,40.0,0.0,-50.0,0.0,26.0,370.32,370.0,3.029455396601838,10.0,0.2804265578251887,-1.1035958754223465,728.4564266072418,0.0384615384615384,0.0361638173962051,0.0,13.0,0.0447116287807627,0.0447116287807627,0.0435844448619199,0.0435844448619199,26.0,370.32,370.0,3.4724055062737134,12.0,-0.1549615017607585,-0.9689473541861084,814.2385202255211,0.1153846153846153,0.0336276535788089,0.0,7.0,0.0459327446928423,0.0459327446928423,26.0,370.32,370.0,3.2829255245893103,12.0,0.1226818401457514,-0.8128536850954338,670.1860577087094,0.1923076923076923,0.0274281420251737,0.0,0.0,0.041705804997182,0.041705804997182,26.0,370.32,370.0,3.183959798741184,12.0,-0.2033869139402336,-0.4132374885215806,580.4299788591527,0.1153846153846153,-22.0,0.0,1.0,0.0442419688145782,0.0442419688145782,0.0430208529024985,0.0430208529024985,0.0373849333082848,0.0373849333082848
15,0.0,12.0,838.0,762.0,200.60454087129187,734.0,1.0867587846903202,0.6948596640373643,183.61418584602103,1.0,-28.0,12.0,11.0,456.54545454545456,12309.88429752066,139.27272727272728,4739.107438016529,70.54545454545455,5851.702479338844,159.66666666666666,9961.888888888889,11.0,922.0,888.0,261.686835740738,830.0,0.6991677290006029,-0.5869718343305093,817.337992883462,1.0,7.0,11.0,8.0,191.75,2927.4375,108.5,2591.75,168.36363636363637,4082.776859504133,11.0,922.4,889.0,261.7461365521944,834.0,0.6954389776283946,-0.578660359167035,680.591405543216,1.0,12.0,11.0,8.0,523.5,5110.75,167.75,8775.4375,64.5,6031.75,151.0909090909091,3357.355371900827,12.0,848.5454545454545,772.0,220.7690540057904,700.0,0.3426224412175225,-1.0243016536203775,42.469823655093,1.0,-32.0,12.0,11.0,130.2,4117.160000000001,66.4,3967.04,10.0,1024.4444444444443,868.0,511.7836155405939,1804.0,1.5252996745042229,1.3885016133202486,39.76019002834845,1.0,-6.0,9.0,9.0,351.55555555555554,14105.58024691358,136.44444444444446,2912.691358024691,50.888888888888886,4065.8765432098776,113.11111111111111,13467.654320987656,11.0,922.2,889.0,262.18993115678563,832.0,0.7004701194380233,-0.5850447299080512,741.357933279201,1.0,11.0,11.0,7.0,534.0,3149.714285714286,166.57142857142858,3121.959183673469,70.57142857142857,2726.530612244898,155.45454545454547,3415.3388429752067,6.0,1215.2,962.0,784.8970378336257,2162.0,1.3712245744100964,0.0885378646829373,-11.838667687406874,1.0,54.0,6.0,5.0,495.2,340.16,163.6,7309.44,74.4,9328.64,170.66666666666666,647.5555555555555,11.0,921.6,887.0,261.5657469929884,832.0,0.7000916740398336,-0.5752415337205119,43.21437684701867,1.0,-52.0,10.0,10.0,185.0,10414.6,68.6,15100.04,11.0,921.8,887.0,261.130542066607,830.0,0.7021167644540648,-0.5774447060363013,382.2054622914235,1.0,6.0,10.0,9.0,130.28571428571428,9406.204081632652,3.0,9161.0,11.0,922.0,888.0,261.1206617638673,826.0,0.6987977791959473,-0.5936737881715017,1071.137991189668,1.0,-13.0,11.0,5.0,140.1818181818182,3043.239669421487,11.0,921.8,889.0,261.9075409376369,830.0,0.696811035421808,-0.5883636024619441,1735.2275874701809,1.0,-24.0,10.0,3.0,168.8,236.16000000000005,11.0,921.8,888.0,261.3311309431006,828.0,0.6959700388281792,-0.5934363211533316,1747.0571701594663,1.0,3.0,10.0,3.0,126.0,5096.0,-28.666666666666668,3632.8888888888887,162.8,1458.5600000000002
16,0.0,23.0,427.09090909090907,439.0,60.71910669101919,188.0,0.0900289772713161,-1.3133896252972015,286.5642230081908,0.7391304347826086,40.0,13.0,18.0,249.25,5916.9375,103.6923076923077,3329.751479289941,5.384615384615385,3821.159763313609,63.69230769230769,1746.9822485207098,23.0,427.09090909090907,433.0,68.34864439096539,278.0,0.8781310635089368,0.5959209693968113,332.31339392135635,0.782608695652174,42.0,9.0,19.0,70.14285714285714,1580.8367346938778,-42.42857142857143,1234.387755102041,50.44444444444444,1750.9135802469134,23.0,411.27272727272725,410.0,58.52286407751001,196.0,-0.0144038184876259,-1.243898666060732,156.03006602912586,0.6521739130434783,-26.0,12.0,22.0,202.66666666666663,2677.333333333333,108.93333333333334,1828.728888888889,40.93333333333333,977.5288888888888,34.0,2654.0,22.0,447.2380952380952,438.0,110.2766671180155,426.0,1.5683578409795096,2.033842940536153,96.30024165051242,0.7272727272727273,28.0,14.0,21.0,122.26666666666668,2117.262222222222,25.33333333333333,1437.1555555555558,23.0,411.3636363636364,407.0,59.19578106476651,208.0,0.2034986779044143,-0.9429804135016152,162.551363442187,0.5652173913043478,-7.0,17.0,22.0,196.5,2032.75,106.46153846153848,1968.094674556213,43.84615384615385,835.9763313609467,20.47058823529412,1804.0138408304497,23.0,427.1818181818182,436.0,63.25607147549076,188.0,0.1894545218255536,-1.2558593437344931,174.1026470833574,0.8260869565217391,43.0,11.0,19.0,258.75,6324.9375,77.375,1630.359375,-27.25,1846.9375,45.27272727272727,1671.4710743801652,24.0,408.5217391304348,410.0,44.0522116754331,170.0,-0.0812814353672838,-0.916025074154268,85.78626778408454,0.4583333333333333,36.0,15.0,21.0,217.42857142857144,979.1020408163264,85.75,1749.4375,-3.8,1322.76,18.266666666666666,1168.9955555555557,23.0,411.45454545454544,409.0,58.98283823801268,208.0,0.2147509020323025,-0.9273055399844377,179.97017668808684,0.5652173913043478,-17.0,10.0,21.0,64.3076923076923,1175.2899408284025,-38.30769230769231,850.9822485207101,23.0,411.45454545454544,408.0,59.19515280580396,212.0,0.2221762876223284,-0.8973228673288056,313.29166437989244,0.4782608695652174,-72.0,1.0,19.0,84.44444444444444,1072.6913580246917,-35.8,2866.7600000000007,23.0,411.45454545454544,408.0,59.696754345096885,212.0,0.2085384012573623,-0.9310511667842154,714.9128244799039,0.5217391304347826,0.0,0.0,17.0,0.0459327446928423,0.0459327446928423,24.0,408.5217391304348,404.0,59.47660816417288,210.0,0.2982575016789757,-0.922177423783444,1134.1820484298194,0.5416666666666666,0.0,2.0,15.0,0.0,256.0,24.0,408.4347826086956,404.0,59.6335374614833,210.0,0.3022404146590249,-0.9198745829838892,860.5282783835022,0.5416666666666666,0.0,5.0,19.0,124.0,2716.4444444444443,18.0,2216.0,-0.4,386.24
17,1.0,8.0,1205.7142857142858,1210.0,18.18723481467377,48.0,0.0127475772903324,-1.4934706174129215,520.124844877224,1.0,0.0,8.0,7.0,455.1428571428572,68.40816326530613,60.285714285714285,90.77551020408164,-41.71428571428572,95.34693877551022,140.0,105.0,8.0,1205.7142857142858,1210.0,17.774092588566617,48.0,0.074890939567022,-1.452205596618794,292.96316459751176,1.0,2.0,8.0,7.0,60.85714285714285,72.9795918367347,-60.285714285714285,31.346938775510207,152.75,170.9375,8.0,1206.2857142857142,1212.0,63.94129961080215,162.0,-0.5756678353467357,-1.2860630017299732,-3.4431648796840726,1.0,4.0,7.0,7.0,549.0,15455.666666666666,121.71428571428572,1911.34693877551,28.571428571428573,1665.9591836734694,318.0,22724.571428571428,8.0,1205.7142857142858,1210.0,18.37478307521546,48.0,-0.0430612253206322,-1.448763557422864,197.75282380922,1.0,44.0,8.0,7.0,331.1428571428572,4771.265306122449,264.0,7470.857142857143,8.0,1206.0,1210.0,17.304004491116252,46.0,-0.005293748824565,-1.451503408892256,374.8074625846285,1.0,0.0,8.0,7.0,448.0,12.571428571428571,49.142857142857146,28.40816326530612,-36.85714285714285,94.6938775510204,130.75,135.9375,9.0,1055.0,1190.0,263.46536774308686,706.0,-1.2215649040837089,-0.3699091515240895,84.1813779229314,1.0,-27.0,9.0,8.0,513.25,17874.9375,226.57142857142856,10912.816326530612,188.0,10821.0,309.75,13149.4375,8.0,1205.7142857142858,1212.0,69.45854732081838,252.0,-0.1500561630746141,0.1161220301132903,93.74111213306551,1.0,-16.0,8.0,7.0,317.42857142857144,3701.387755102041,87.14285714285714,5360.979591836734,16.0,5445.714285714285,37.5,5591.75,8.0,1206.0,1212.0,17.728105208558365,46.0,-0.0959954920053507,-1.4855471074380169,439.47727457680486,1.0,0.0,8.0,7.0,49.142857142857146,14.693877551020408,-26.857142857142858,0.979591836734694,8.0,1205.7142857142858,1210.0,17.645025893308013,46.0,-0.0527291247782133,-1.463343726601054,849.1940616720012,1.0,2.0,8.0,7.0,76.28571428571429,461.061224489796,-4.857142857142857,541.5510204081633,8.0,1205.7142857142858,1210.0,17.645025893308013,46.0,-0.0527291247782133,-1.463343726601054,1138.4837481770155,1.0,0.0,8.0,7.0,128.0,3.0,8.0,1206.0,1212.0,17.728105208558365,46.0,-0.0959954920053507,-1.4855471074380169,1475.318384729439,1.0,0.0,8.0,7.0,139.75,11.4375,8.0,1205.7142857142858,1210.0,17.934119801685963,48.0,0.0262017725979842,-1.42199927851787,1137.7945117825825,1.0,0.0,8.0,7.0,60.85714285714285,83.26530612244899,-59.42857142857143,33.95918367346939,142.0,42.0
18,3.0,18.0,543.1764705882352,548.0,12.907978809829885,42.0,-0.6658549685465345,-0.8594322138945332,564.388515430739,1.0,0.0,3.0,17.0,236.0,34.666666666666664,61.64705882352941,435.40484429065737,-26.23529411764705,379.7093425605536,-16.0,0.0,18.0,543.1764705882352,546.0,13.106959507958075,42.0,-0.5977044827629735,-0.8658996590265624,688.0214752357,1.0,-2.0,14.0,17.0,78.82352941176471,152.9688581314879,-45.05882352941177,95.11418685121104,64.14285714285714,1544.2653061224487,18.0,543.0588235294117,544.0,24.534419012134272,106.0,1.870009380025844,4.243046117488514,144.7912377242117,1.0,-6.0,13.0,17.0,356.3333333333333,4661.888888888889,97.29411764705884,719.0311418685121,26.23529411764705,719.9446366782006,103.07692307692308,2839.763313609468,15.0,542.2857142857143,547.0,47.88591885397831,242.0,0.0307264117013999,2.846269726775846,54.121638815667225,0.4666666666666667,5.0,1.0,14.0,57.42857142857143,382.530612244898,-42.57142857142857,118.53061224489797,18.0,543.1764705882352,548.0,12.962549196084066,40.0,-0.7375493265680643,-0.7599910435365649,243.8094595914312,1.0,0.0,7.0,17.0,251.1428571428572,1213.5510204081634,54.94117647058823,902.6435986159167,0.8235294117647058,896.968858131488,-5.142857142857143,166.6938775510204,18.0,543.0588235294117,546.0,12.999866914410608,42.0,-0.6079597965585078,-0.8446322444848358,416.65119350071313,1.0,-2.0,16.0,17.0,338.1333333333333,1071.7155555555555,93.52941176470588,93.42560553633218,18.23529411764705,13.591695501730102,103.125,1469.484375,15.0,659.7142857142857,552.0,212.6067558970345,572.0,1.389941486593708,-0.043041662092496,3.614622249552177,1.0,-1.0,0.0,14.0,0.0465902686455006,0.0465902686455006,36.142857142857146,47.693877551020414,-25.857142857142858,4.2653061224489806,0.0341912455382303,0.0341912455382303,18.0,543.1764705882352,546.0,12.761316980338057,38.0,-0.6120340770736288,-0.955760697531848,122.55167937875784,1.0,0.0,0.0,17.0,78.70588235294117,1567.031141868512,18.352941176470587,1658.9342560553634,18.0,543.1764705882352,548.0,12.85317673764486,40.0,-0.718602053102138,-0.8331862313931788,1780.9721148543606,1.0,0.0,18.0,1.0,98.0,0.0,32.0,0.0,18.0,543.0588235294117,546.0,12.890811083117416,40.0,-0.6391053701692987,-0.9138346452294536,4375.460537925661,1.0,-2.0,18.0,0.0,-19.444444444444443,0.8024691358024693,18.0,543.1764705882352,548.0,12.907978809829885,42.0,-0.6658549685465345,-0.8594322138945332,3773.502460840295,1.0,2.0,18.0,0.0,-17.555555555555557,1.5802469135802464,18.0,543.1764705882352,548.0,12.779741754353196,40.0,-0.6047753959681987,-1.0031725653547927,2288.8815066430325,0.7222222222222222,2.0,13.0,10.0,70.75,707.9375,-18.666666666666668,1079.111111111111,48.46153846153846,1895.4792899408285
19,1.0,10.0,1022.4444444444443,1016.0,20.19411966726459,72.0,1.507909397882587,1.2910966041222842,645.6010100942873,1.0,-22.0,7.0,9.0,534.5714285714286,765.3877551020408,122.25,11149.4375,57.11111111111112,12692.543209876543,241.7142857142857,1609.6326530612246,10.0,1022.6666666666666,1018.0,20.65591117977289,72.0,1.545831373772723,1.4498177083333443,618.1866840490422,1.0,-4.0,10.0,9.0,68.0,537.7777777777778,-21.77777777777778,837.7283950617284,179.2,7363.360000000001,10.0,1022.4444444444443,1018.0,21.245188271497103,72.0,1.382934101629275,1.1077772457612882,57.77145024278352,1.0,-4.0,10.0,9.0,510.0,113.77777777777776,76.88888888888889,5219.654320987655,-5.333333333333333,6695.111111111112,168.8,1716.9599999999998,10.0,1022.4444444444443,1020.0,25.86765939293959,76.0,0.9404084881488832,-0.5098621097207299,31.335031916046567,1.0,-26.0,9.0,9.0,161.0,12973.0,97.77777777777776,14363.950617283952,10.0,1022.4444444444443,1020.0,20.49992472133122,70.0,1.410406460647257,1.0570185072928622,364.6658787153159,1.0,0.0,10.0,9.0,534.6666666666666,618.6666666666666,180.75,7788.9375,112.66666666666669,9591.111111111111,226.8,2091.36,10.0,1022.6666666666666,1018.0,20.93375795747677,72.0,1.4558302124910694,1.2480384613802258,297.4749651284728,1.0,-6.0,10.0,9.0,518.4444444444445,138.46913580246914,50.44444444444444,47.80246913580247,-34.666666666666664,10.666666666666668,99.6,1735.0400000000002,10.0,1022.4444444444443,1018.0,20.97146797760716,74.0,1.468377013067328,1.3005499866383945,169.41600057474142,1.0,-4.0,10.0,9.0,510.6666666666667,11.555555555555555,66.0,7202.666666666667,1.7777777777777777,7334.617283950618,137.2,2925.76,10.0,1022.6666666666666,1014.0,20.97617696340303,74.0,1.4795684785572736,1.228717477808397,391.91737917990383,1.0,-24.0,10.0,9.0,114.44444444444444,7414.024691358024,19.77777777777778,3774.617283950618,10.0,1022.6666666666666,1016.0,20.33060090930254,72.0,1.66248323425879,1.70105445716269,824.2042001219028,1.0,-6.0,10.0,7.0,112.0,5173.333333333333,15.0,3267.6666666666665,10.0,1022.6666666666666,1018.0,21.18699810942761,72.0,1.4053702843588125,1.0893461425350548,1236.8192173905604,1.0,-4.0,9.0,4.0,155.33333333333334,86.22222222222223,10.0,1022.4444444444443,1020.0,20.67263951921375,70.0,1.352544285719715,0.9490264317084116,1284.379832700614,1.0,-2.0,9.0,1.0,205.11111111111111,2472.987654320988,10.0,1022.6666666666666,1018.0,20.65591117977289,72.0,1.545831373772723,1.4498177083333443,1012.4830147879268,1.0,2.0,7.0,4.0,179.5,9218.75,58.5,2570.75,193.1428571428572,1523.265306122449
20,2.0,14.0,703.6923076923077,704.0,7.518025675612688,28.0,-0.6968434223886163,0.0350538286070363,450.338370950989,1.0,-2.0,14.0,13.0,387.38461538461536,897.4674556213018,71.6923076923077,3066.3668639053253,6.615384615384615,3547.9289940828403,90.85714285714286,2347.836734693878,14.0,703.8461538461538,704.0,7.862727593341932,30.0,-0.6185924304510667,-0.1844062859836577,449.8908569037212,1.0,0.0,14.0,13.0,145.33333333333334,8285.555555555555,60.66666666666666,3150.8888888888887,114.0,10.857142857142858,15.0,653.7142857142857,688.0,113.71356783693,348.0,-0.9721910224149304,-0.4099492282567318,40.00670137363596,1.0,-25.0,15.0,14.0,390.7692307692308,5408.94674556213,92.0,3390.153846153846,20.0,4594.461538461538,98.26666666666668,2576.995555555556,14.0,703.8461538461538,704.0,7.583850796225378,30.0,-0.6262119262852706,0.1639536655997426,90.82129889555593,1.0,-6.0,11.0,13.0,164.92307692307693,5297.609467455622,79.38461538461539,4194.082840236686,14.0,703.6923076923077,702.0,25.586608923673683,90.0,0.5346048481914982,-0.0344150146730628,176.00156849504782,1.0,2.0,13.0,13.0,352.3636363636364,4934.413223140496,77.16666666666667,3154.972222222222,-5.333333333333333,2314.888888888889,94.0,5118.153846153846,14.0,704.0,706.0,7.016464154456234,22.0,-0.3634309167503501,-0.9809375,224.7277844027733,1.0,2.0,14.0,13.0,406.0,898.9090909090909,153.27272727272728,5099.834710743801,76.9090909090909,2796.628099173553,115.71428571428572,19.346938775510203,14.0,703.8461538461538,704.0,7.583850796225378,28.0,-0.7277922963465849,-0.0050205761317032,121.3703835987848,1.0,-2.0,14.0,13.0,440.7692307692308,963.4082840236684,209.53846153846155,4274.556213017751,69.07692307692308,1616.378698224852,110.14285714285714,35.12244897959183,14.0,703.8461538461538,706.0,8.017731828181775,30.0,-0.6241829557497313,-0.3467012695183413,755.129717340257,1.0,8.0,14.0,13.0,203.3846153846154,8367.621301775147,87.07692307692308,3546.840236686391,14.0,703.8461538461538,706.0,7.54316964438847,28.0,-0.7488955873117394,0.0540620042580011,896.3789411205007,1.0,4.0,14.0,9.0,162.88888888888889,8295.20987654321,73.33333333333333,3507.555555555556,14.0,704.0,706.0,7.605665904189708,28.0,-0.7804931596450903,0.0219556360344048,874.9038278548966,1.0,-6.0,14.0,8.0,108.71428571428572,22.63265306122449,14.0,703.8461538461538,704.0,7.583850796225378,28.0,-0.7277922963465849,-0.0050205761317032,693.8002405134465,1.0,2.0,14.0,7.0,112.14285714285714,56.265306122448976,14.0,704.0,706.0,7.316998123442532,28.0,-0.8765607145503389,0.3775267538644469,570.9133179340179,1.0,-6.0,14.0,10.0,124.8,5140.96,49.8,2572.36,112.42857142857144,100.10204081632652
21,0.0,10.0,1032.0,1086.0,223.0455857741492,596.0,-0.4054111683615611,-1.4009475163674758,270.36458441335856,0.9,29.0,10.0,9.0,431.5,96.75,278.75,13154.9375,211.5,10521.75,150.44444444444446,141.1358024691358,10.0,1032.0,1088.0,223.9523758897562,598.0,-0.4118438616598448,-1.397275761162838,331.16143588266027,0.9,187.0,10.0,7.0,310.3333333333333,6479.222222222223,196.3333333333333,3488.555555555556,104.5,4977.75,10.0,1032.0,1088.0,223.7180765556905,596.0,-0.4050299001632049,-1.403793078143243,67.14141034997934,0.9,113.0,10.0,8.0,465.7142857142857,766.2040816326531,206.28571428571428,10013.061224489797,110.85714285714286,5539.265306122448,117.55555555555556,1812.2469135802469,9.0,1006.75,1025.0,225.13537594078807,598.0,-0.2084724904339837,-1.4847006315818907,51.287997014250855,1.0,-11.0,9.0,8.0,113.25,1543.9375,43.0,510.0,11.0,928.8,913.0,263.60151744631514,776.0,-0.0160658152027796,-1.3878941459569372,96.55511439971038,0.9090909090909092,-5.0,11.0,10.0,416.6666666666667,1480.888888888889,201.5555555555556,4374.913580246914,144.44444444444446,4842.469135802468,247.45454545454547,2414.6115702479337,10.0,1031.7777777777778,1086.0,223.89768386364824,598.0,-0.4093478839897194,-1.3973990994494694,197.32642622086607,0.9,121.0,10.0,8.0,473.3333333333333,688.8888888888888,288.6666666666667,5532.88888888889,168.0,3561.333333333333,120.88888888888889,1889.876543209877,9.0,1006.5,1025.0,224.3629871436017,600.0,-0.214541134345039,-1.472323485157939,100.88412792521264,1.0,-32.0,9.0,8.0,345.5,9740.75,101.5,7156.75,24.75,6564.9375,82.44444444444444,5566.024691358023,9.0,1007.0,1025.0,223.8213573366045,596.0,-0.2068910305030679,-1.4804069929746384,157.39885803136255,1.0,71.0,9.0,6.0,161.66666666666666,3615.222222222222,2.6666666666666665,10054.222222222224,9.0,1007.0,1025.0,223.89283150650448,594.0,-0.2084207879720027,-1.4864424542847934,331.11233030275935,1.0,26.0,9.0,3.0,232.0,8736.0,98.66666666666669,5870.222222222223,10.0,1031.7777777777778,1086.0,223.89768386364824,598.0,-0.4093478839897194,-1.3973990994494694,1011.6066368987724,0.9,60.0,10.0,3.0,163.77777777777777,16.395061728395063,11.0,928.8,976.0,308.676140963308,850.0,-0.2691662657178907,-1.5002063157353829,1050.5671637403336,0.8181818181818182,208.0,11.0,6.0,183.27272727272728,552.9256198347106,10.0,1032.0,1088.0,223.35422787829896,598.0,-0.4095560679317429,-1.3957987896472988,601.069454890987,0.8,76.0,10.0,9.0,348.57142857142856,2516.244897959184,219.7142857142857,3434.775510204082,79.75,3289.4375
22,3.0,17.0,585.125,586.0,4.525966747557918,14.0,-0.1300656415994106,-1.2075991391272929,119.30014668471009,1.0,-10.0,17.0,15.0,351.8666666666667,2047.7155555555555,94.26666666666668,2570.595555555556,38.66666666666666,3722.4888888888886,97.41176470588236,2400.83044982699,17.0,584.375,584.0,5.967359131140006,20.0,0.0582921065310854,-1.17483881389515,206.556319537872,1.0,-1.0,17.0,16.0,71.25,290.9375,-28.5,675.75,93.76470588235294,1175.0034602076123,17.0,584.0,587.0,81.71597151108222,252.0,-0.0940973327306776,-0.9675769966279524,119.29665953286874,1.0,1.0,17.0,16.0,331.06666666666666,4365.795555555555,88.66666666666667,1623.8222222222223,-2.0,2649.0666666666666,99.76470588235294,2657.826989619378,17.0,588.875,582.0,45.9508909054003,142.0,0.0507209944084233,-0.8456914333349008,83.87259009841043,0.9411764705882352,-10.0,10.0,16.0,124.66666666666669,4110.222222222222,41.46666666666667,1891.9822222222224,17.0,586.625,586.0,17.417214903652077,62.0,-0.1867152860358629,-0.0945650013075609,132.79879412302273,1.0,10.0,16.0,16.0,292.4,5396.906666666667,130.875,4460.984375,56.25,3015.4375,95.75,1674.4375,17.0,584.25,586.0,35.13456275521299,170.0,-2.167252993441424,6.04212294209688,145.04939782424253,0.9411764705882352,-1.0,16.0,16.0,361.06666666666666,3372.1955555555555,73.86666666666666,873.3155555555555,-21.6,1040.64,83.125,684.984375,17.0,584.625,584.0,5.464373248598599,22.0,0.5716348850121948,0.3622142976258247,86.62909867279657,1.0,-1.0,17.0,16.0,324.75,3801.4375,98.75,2147.4375,38.25,3019.4375,74.58823529411765,1904.8304498269897,17.0,584.625,585.0,5.134138194478212,20.0,0.0504832354935272,-0.1964005932601513,112.8737248785788,1.0,3.0,17.0,16.0,87.5,999.75,26.875,1377.484375,17.0,584.75,584.0,4.993746088859544,18.0,0.2446669273001077,-0.5716923888669041,111.6149828898049,1.0,1.0,17.0,16.0,117.375,2895.859375,38.75,1781.9375,17.0,584.75,584.0,4.054318685056714,16.0,-0.066117357150515,-0.0634677384377395,197.3010190980924,1.0,-1.0,17.0,16.0,78.0,92.70588235294116,17.0,584.75,585.0,3.665719574653795,14.0,0.2911957226204161,0.0088696592752839,428.1093655511994,1.0,-9.0,17.0,16.0,85.88235294117646,38.33910034602076,17.0,584.75,584.0,4.235268586524354,18.0,0.2529777154718379,0.33014847818961,411.6480207907607,1.0,-1.0,17.0,16.0,78.25,911.9375,-16.5,1467.25,84.94117647058823,150.17301038062283
23,0.0,23.0,409.27272727272725,371.0,85.55603257949612,350.0,1.429787643807983,1.4187979140776656,487.1182872232472,0.6086956521739131,-29.0,14.0,16.0,286.8,1346.56,52.75,1146.9375,-20.5,1254.75,34.142857142857146,711.1224489795917,22.0,429.2380952380952,392.0,107.79076060851578,432.0,1.4472909196716024,1.4056706630242326,221.3095001012193,0.7272727272727273,18.0,4.0,11.0,78.28571428571429,822.2040816326531,-15.714285714285714,488.48979591836735,13.5,1610.75,23.0,409.3636363636364,370.0,86.1676724102203,354.0,1.4393505264561592,1.4408296112469996,255.81239738690903,0.6956521739130435,12.0,17.0,22.0,187.4,824.04,113.46666666666668,1284.5155555555557,31.066666666666663,485.2622222222223,39.76470588235294,1591.4740484429065,22.0,428.95238095238096,388.0,107.14586239171534,402.0,1.3372451138179364,0.8800410794869298,-60.19925098684377,0.6818181818181818,-4.0,12.0,21.0,123.71428571428572,751.9183673469388,50.285714285714285,778.7755102040817,23.0,409.3636363636364,371.0,85.36421725041974,350.0,1.441949972801746,1.4566884800905937,400.8557114476464,0.6086956521739131,-38.0,23.0,21.0,216.5,2216.083333333333,70.76923076923077,1703.715976331361,-3.076923076923077,1746.8402366863909,40.52173913043478,890.1625708884687,23.0,409.3636363636364,370.0,86.0705553361181,354.0,1.4373585356265353,1.4500569072189462,225.82022027101155,0.7391304347826086,-20.0,12.0,22.0,189.66666666666663,545.8888888888889,106.75,1391.4375,42.0,225.5,30.166666666666668,1372.3055555555557,23.0,409.27272727272725,380.0,82.97545191100022,354.0,1.3708045156494406,1.5999994185352795,85.15274690998989,0.7391304347826086,4.0,14.0,18.0,229.3333333333333,3973.3333333333335,108.76923076923076,1751.715976331361,3.571428571428572,1965.244897959184,40.42857142857143,1539.530612244898,23.0,409.27272727272725,372.0,84.68239154639251,350.0,1.3990057204564106,1.3662729922425196,279.06391197428013,0.3478260869565217,0.0,21.0,14.0,35.142857142857146,483.265306122449,-25.428571428571427,100.24489795918366,23.0,409.3636363636364,373.0,85.00991677688683,350.0,1.4348784791905969,1.4753221831183143,549.8488113665894,0.5217391304347826,9.0,13.0,12.0,62.4,719.04,17.6,520.6400000000001,23.0,409.27272727272725,371.0,85.56028274538996,350.0,1.4296049828336,1.4178474091707276,1237.0599088763363,0.3478260869565217,-71.0,18.0,9.0,34.77777777777778,1770.2839506172838,23.0,409.3636363636364,371.0,85.78702246342681,352.0,1.4433232083035523,1.4717171788369052,2243.33782325363,0.3043478260869565,-35.0,14.0,5.0,17.857142857142858,1491.6938775510207,23.0,409.3636363636364,371.0,85.7297791979095,350.0,1.4306733847126958,1.4070537125923872,1205.4510010819174,0.391304347826087,1.0,3.0,11.0,58.66666666666666,3318.2222222222226,-52.66666666666666,832.8888888888888,35.333333333333336,139.55555555555557
24,3.0,18.0,541.8823529411765,538.0,9.857110619131015,38.0,0.3389712414452485,-0.6979720943823504,316.3397399451954,1.0,-8.0,18.0,17.0,368.5882352941176,1068.5951557093426,64.58823529411765,1467.1833910034602,-12.352941176470589,984.1107266435988,83.77777777777777,447.5061728395061,18.0,541.8823529411765,540.0,9.73702668073344,38.0,0.2834805440924187,-0.6896430923331018,614.1648123381683,1.0,-2.0,18.0,17.0,146.58823529411765,1244.124567474048,21.88235294117647,1331.515570934256,75.11111111111111,176.09876543209876,18.0,542.0,540.0,10.08201660500167,38.0,0.2286799998337409,-0.8126929012345676,425.69663304000255,1.0,-2.0,9.0,17.0,233.75,2443.4375,171.1764705882353,158.61591695501727,71.29411764705883,271.5017301038062,43.55555555555556,2422.9135802469136,18.0,541.8823529411765,540.0,11.302692823035718,38.0,0.0465451043503971,-1.1528964737671803,43.70129019191017,0.0,0.038042457260943,1.0,17.0,0.0247041142213037,0.0247041142213037,0.0247041142213037,0.0247041142213037,18.0,542.0,540.0,13.685544112203168,44.0,0.1310850218696514,-0.9924623115577892,136.8114275331332,0.8888888888888888,0.0,14.0,17.0,365.8333333333333,319.63888888888886,61.0,993.5714285714286,-2.4285714285714284,1100.1020408163265,97.42857142857144,316.8163265306122,18.0,541.8823529411765,540.0,9.785237097378026,38.0,0.3037740806286798,-0.6839852646301225,503.8276714813335,1.0,0.0,17.0,17.0,303.125,2602.984375,153.2941176470588,1809.3840830449824,36.8235294117647,751.5570934256054,106.23529411764706,1941.59169550173,18.0,541.8823529411765,540.0,9.809253452082745,38.0,0.2897584096738116,-0.6874324647326855,117.535608764171,1.0,0.0,18.0,17.0,289.7647058823529,3091.2387543252594,98.11764705882354,1946.1038062283733,23.88235294117647,1829.868512110727,-5.444444444444445,1107.0246913580247,18.0,542.0,540.0,9.72564832256018,36.0,0.3437594565633508,-0.7789039875250618,445.9880437096965,1.0,-2.0,18.0,17.0,118.47058823529412,2186.602076124568,14.588235294117649,2338.242214532872,18.0,541.8823529411765,540.0,9.92846385216101,40.0,0.3812695038236578,-0.4618054052289286,560.1006765205782,1.0,0.0,18.0,17.0,68.23529411764706,1788.1799307958477,-60.11764705882353,3126.339100346021,18.0,541.8823529411765,540.0,9.833211150102054,38.0,0.2610934348300746,-0.7484095424909767,612.8066092731491,1.0,-4.0,18.0,17.0,84.77777777777777,24.506172839506167,18.0,541.8823529411765,540.0,9.857110619131015,36.0,0.3743485403507864,-0.8398436701000791,573.1161146555758,1.0,0.0,18.0,17.0,84.44444444444444,23.358024691358025,18.0,541.8823529411765,538.0,9.761161653031312,36.0,0.4272848745528874,-0.8196262054580226,540.559453566671,1.0,0.0,18.0,17.0,132.7058823529412,2279.0311418685123,0.1176470588235294,1698.103806228374,81.55555555555556,45.1358024691358
25,1.0,9.0,1013.75,1010.0,17.647591903713096,46.0,0.0750699779304941,-1.5138171770775604,334.01334449163875,1.0,-15.0,9.0,8.0,441.25,590.9375,63.5,329.75,-16.0,849.0,69.11111111111111,1999.2098765432097,9.0,1013.5,1009.0,18.350749303502567,48.0,0.0726987057458249,-1.5262391224911251,1060.239348825872,1.0,-4.0,9.0,8.0,93.25,1714.9375,-35.25,1788.9375,-10.857142857142858,5605.551020408164,9.0,1013.75,1009.0,17.56238878968348,46.0,0.0857213185887563,-1.491652392962617,727.4072494811359,1.0,0.0,9.0,8.0,440.75,1843.9375,106.5,1575.75,1.0,1851.0,126.88888888888889,476.5432098765433,9.0,1013.5,1007.0,16.635804759614125,44.0,0.2604823389039248,-1.5805651642785623,74.65288487613721,1.0,-8.0,9.0,8.0,142.75,7732.9375,68.25,10735.4375,9.0,1011.0,1003.0,26.68332812825267,68.0,0.2948122886282177,-1.626011946092665,10.369938541927755,1.0,-71.0,9.0,8.0,387.75,514.4375,231.25,5306.9375,174.25,5718.4375,145.33333333333334,730.6666666666666,9.0,1013.75,1009.0,18.232868671714822,48.0,0.0419619883312564,-1.4968181726121608,893.5936980693182,1.0,1.0,9.0,8.0,451.5,2143.75,101.25,1978.9375,-23.75,2174.4375,50.22222222222222,2127.5061728395062,9.0,1013.5,1008.0,17.909494688572316,46.0,0.1962321880548927,-1.591130248728957,231.14013414716635,1.0,1.0,6.0,8.0,422.4,611.84,56.5,366.75,-24.5,428.75,32.333333333333336,4648.555555555556,9.0,1013.5,1008.0,18.75499933351105,50.0,0.1497255369344811,-1.499032404229235,268.1682632844226,1.0,-1.0,9.0,8.0,80.25,1083.4375,-5.5,961.75,9.0,1014.0,1010.0,17.72004514666935,46.0,-0.0323502791837446,-1.452756704125928,532.3002557908466,1.0,1.0,9.0,8.0,85.25,6391.9375,4.75,9802.9375,9.0,1013.75,1009.0,18.232868671714822,48.0,0.0419619883312564,-1.4968181726121608,1655.8469435383338,1.0,-2.0,9.0,0.0,-83.33333333333333,94.22222222222224,9.0,1013.75,1009.0,17.56238878968348,46.0,0.0857213185887563,-1.491652392962617,1450.8772723725788,1.0,-7.0,9.0,1.0,-62.57142857142857,2420.244897959184,9.0,1013.75,1009.0,18.17793992728549,48.0,0.0700627033081178,-1.485021251687111,1081.840884803548,1.0,-1.0,9.0,7.0,141.42857142857142,2155.1020408163267,50.285714285714285,3352.489795918368,43.25,4644.9375
26,1.0,9.0,1026.75,1028.0,12.487493743742176,40.0,0.3880916927465088,-0.8052668061574049,459.4500800034623,1.0,3.0,9.0,8.0,396.75,138.9375,166.75,495.9375,55.0,263.0,129.11111111111111,709.432098765432,10.0,996.2222222222222,1024.0,87.14965133834478,298.0,-2.3865606608393373,3.8815803309653454,421.622394988211,0.9,-2.0,9.0,9.0,165.5,2252.75,60.75,2268.9375,30.0,5052.8,9.0,1027.0,1029.0,12.727922061357855,40.0,0.4932288041609869,-0.5700731595793322,266.5400560116033,1.0,2.0,9.0,8.0,357.0,7.0,202.75,20.9375,128.5,11.75,47.2,3207.36,9.0,1026.75,1027.0,12.725466592624413,38.0,0.3951117578076402,-1.0062164834154863,76.58376046978259,1.0,-2.0,9.0,8.0,205.75,11786.4375,143.0,11201.0,9.0,1026.75,1028.0,12.285662375305614,38.0,0.416836948304545,-0.8020770803595538,271.68713773940766,1.0,-1.0,9.0,8.0,394.75,3451.9375,167.25,5396.9375,87.0,6619.0,147.11111111111111,8720.0987654321,10.0,997.5555555555557,1024.0,83.57978372138552,292.0,-2.35838171824432,3.81222680992869,269.1442353900628,0.9,-4.0,9.0,9.0,368.0,12.0,196.75,22.9375,116.75,47.9375,50.5,3520.75,9.0,1026.75,1027.0,12.607041683122969,40.0,0.3827701856392651,-0.8838489966288066,82.42311586043702,1.0,-1.0,9.0,8.0,472.5,926.75,63.75,763.4375,-3.5,847.75,86.66666666666667,28.444444444444443,9.0,1026.75,1028.0,12.487493743742176,40.0,0.3880916927465088,-0.8052668061574049,143.34334223870624,1.0,7.0,9.0,8.0,110.25,3020.4375,22.5,1532.75,9.0,1026.75,1028.0,12.285662375305614,38.0,0.416836948304545,-0.8020770803595538,515.1361398003152,1.0,8.0,9.0,7.0,124.0,4196.571428571428,36.285714285714285,3773.061224489796,9.0,1026.75,1028.0,12.285662375305614,38.0,0.416836948304545,-0.8020770803595538,964.335377800134,1.0,2.0,9.0,6.0,110.66666666666669,16.888888888888893,9.0,1027.0,1029.0,12.36931687685298,38.0,0.3550848366545006,-0.8886325772138921,881.1770349280889,1.0,13.0,9.0,5.0,87.33333333333333,5182.222222222222,9.0,1027.0,1029.0,12.36931687685298,38.0,0.3550848366545006,-0.8886325772138921,725.0035373087528,1.0,4.0,9.0,6.0,158.4,9157.44,59.6,11450.240000000002,88.25,830.4375
27,2.0,12.0,772.9090909090909,778.0,10.697956860622291,30.0,-0.0316053334759789,-1.4755853850720928,273.7733854949477,1.0,18.0,12.0,11.0,371.8181818181818,2422.876033057851,103.63636363636364,3745.322314049587,29.27272727272728,3486.01652892562,140.33333333333334,1045.888888888889,12.0,773.0909090909091,778.0,10.103595628690767,30.0,-0.0840212394292082,-1.4431415105103482,492.6014629409142,1.0,8.0,12.0,11.0,141.8181818181818,123.2396694214876,62.72727272727273,752.198347107438,141.66666666666666,971.888888888889,13.0,759.8333333333334,772.0,44.87358787626513,172.0,-2.802125716258967,6.325218833243227,218.58605219388832,1.0,2.0,12.0,12.0,363.0,1221.0,142.0,1118.6666666666667,56.5,930.0833333333334,163.0,324.3333333333333,12.0,767.2727272727273,768.0,19.7488361410393,72.0,-1.5662160235924716,2.03178151364778,80.08730556191621,1.0,-8.0,11.0,11.0,145.0909090909091,4614.809917355373,98.1818181818182,5537.785123966942,12.0,773.0909090909091,778.0,12.191312446720152,34.0,-0.1800596438768477,-1.5864186512962073,64.66384594657208,1.0,8.0,12.0,11.0,321.8181818181818,1603.2396694214876,97.63636363636364,1739.5041322314048,21.454545454545453,1845.1570247933885,159.33333333333334,902.2222222222222,12.0,773.2727272727273,778.0,9.808075606735402,28.0,-0.1594615813739622,-1.5107358203138854,360.3818319415287,1.0,6.0,12.0,11.0,375.6363636363636,238.41322314049583,147.8181818181818,25.05785123966942,60.54545454545455,176.79338842975207,143.0,657.0,13.0,761.1666666666666,772.0,40.75502695646541,156.0,-2.706135220889317,5.980280718437877,308.7845718708235,1.0,-5.0,13.0,12.0,358.5,8082.083333333333,81.33333333333333,7664.222222222223,5.833333333333333,6617.638888888888,76.15384615384616,6584.284023668638,12.0,773.0909090909091,778.0,10.103595628690767,30.0,-0.0840212394292082,-1.4431415105103482,924.6868924884008,1.0,4.0,12.0,8.0,125.5,7649.75,21.75,7820.4375,12.0,773.0909090909091,778.0,11.163695587642726,32.0,-0.0933647489056321,-1.5264675048723324,1299.3593530670491,1.0,-16.0,12.0,7.0,142.85714285714286,8858.122448979591,42.57142857142857,6412.244897959184,12.0,773.0909090909091,778.0,10.663911489901947,30.0,-0.2360017621237446,-1.552726473769602,1404.5587492665356,1.0,14.0,12.0,6.0,100.83333333333331,230.30555555555551,12.0,773.0909090909091,778.0,10.352466069444915,30.0,-0.0655923055536038,-1.5410151158396437,1157.4305413645304,1.0,12.0,12.0,10.0,110.5,197.41666666666663,12.0,773.0909090909091,778.0,10.663911489901947,30.0,-0.2360017621237446,-1.552726473769602,861.7383220453793,1.0,16.0,12.0,11.0,131.8181818181818,2805.4214876033056,51.27272727272727,3454.01652892562,92.66666666666669,2465.555555555556
28,2.0,13.0,692.6666666666666,696.0,15.670212364724213,50.0,0.1879616963565525,-0.9018660551585742,197.9271992167179,1.0,3.0,13.0,12.0,365.0,1342.3333333333333,101.0,3914.3333333333335,44.0,5272.666666666667,151.3846153846154,3392.2366863905327,14.0,691.3846153846154,694.0,15.6182263424129,50.0,0.3792977214451157,-0.9394371359248046,429.51489842747367,1.0,0.0,13.0,13.0,60.92307692307692,926.5325443786982,-8.153846153846153,928.284023668639,210.7692307692308,807.715976331361,18.0,528.5882352941177,548.0,146.9049547971226,414.0,0.0933087551162135,-1.6500947812350015,114.81988274555388,1.0,2.0,15.0,17.0,259.3333333333333,997.688888888889,95.625,1589.609375,40.375,1997.609375,72.8,1649.493333333333,13.0,686.0,707.0,67.78397057318689,202.0,-0.3750777624358384,-1.2459852347587137,34.23972551080743,1.0,7.0,12.0,12.0,136.66666666666666,4431.555555555556,62.833333333333336,5588.305555555556,13.0,692.6666666666666,697.0,16.090024514862893,52.0,0.1115326866480057,-0.9992101530696816,58.98029711992241,1.0,69.0,13.0,12.0,324.0,1306.6666666666667,102.16666666666669,4202.305555555556,47.833333333333336,3995.638888888889,131.23076923076923,298.79289940828403,14.0,691.2307692307693,694.0,15.621256948115708,48.0,0.277802578332888,-1.1186907327738305,336.41577991916245,1.0,-2.0,13.0,13.0,405.38461538461536,3322.698224852072,89.53846153846153,1434.5562130177516,24.15384615384616,1376.8994082840238,195.69230769230768,1628.828402366864,13.0,692.6666666666666,696.0,15.2825245151302,48.0,0.0984107355290547,-0.964656921367986,80.35441091908814,1.0,1.0,13.0,12.0,281.6666666666667,2491.888888888889,61.0,766.3333333333334,-1.0,761.6666666666666,49.23076923076923,1869.254437869822,13.0,692.6666666666666,696.0,15.456030825826172,48.0,0.090077981708554,-1.0378254191454837,119.86574847021517,1.0,-5.0,10.0,12.0,71.16666666666667,4814.305555555555,-1.5,3993.4166666666665,13.0,692.6666666666666,695.0,15.412837362262522,48.0,0.1494670046042888,-1.087437355667544,384.5016131730142,1.0,-5.0,13.0,12.0,105.0,6185.666666666667,3.0,1993.0,13.0,692.6666666666666,695.0,15.391195174153594,48.0,0.1460757367878156,-1.080538141216308,953.950587452042,1.0,32.0,13.0,11.0,135.84615384615384,4136.899408284024,13.0,692.6666666666666,696.0,15.347819244295115,48.0,0.1392040102515307,-1.067173371306513,841.2398267499108,1.0,1.0,13.0,11.0,172.76923076923077,4129.5621301775145,14.0,691.3846153846154,694.0,15.439900664977696,48.0,0.2995312466177653,-1.1070736290448224,651.1412236201971,0.9285714285714286,-1.0,12.0,13.0,65.6923076923077,1916.213017751479,-14.923076923076923,1022.5325443786982,191.66666666666663,788.5555555555555
29,0.0,9.0,1110.5,1132.0,281.6713510458598,850.0,-0.0180835038229145,-1.1085200102107453,84.24752668587753,1.0,-55.0,9.0,8.0,455.0,1247.0,255.1428571428572,14986.122448979591,205.25,15486.9375,174.44444444444446,873.5802469135803,9.0,1110.75,1134.0,282.33479682816284,854.0,-0.0330032988390107,-1.098793124345354,127.35712365270608,1.0,-33.0,9.0,8.0,189.75,15091.4375,79.5,14899.75,151.11111111111111,598.320987654321,11.0,889.0,825.0,355.6236775019346,1178.0,-0.018104316538325,-1.0241541083358654,45.70452400700798,1.0,-47.0,11.0,10.0,408.6666666666667,2552.8888888888887,178.0,4816.888888888889,122.44444444444444,6047.802469135802,209.8181818181818,1965.4214876033056,9.0,1110.75,1132.0,280.85216306804546,848.0,-0.0333209709548418,-1.0991362457469764,122.01996178166534,1.0,2.0,6.0,8.0,202.75,17365.9375,116.25,11722.4375,7.0,1341.0,1144.0,806.2363177133612,2320.0,0.583782473519282,-0.9864438850912598,38.64842081053161,1.0,-12.0,7.0,6.0,417.3333333333333,15331.555555555557,274.0,19732.8,227.66666666666663,21764.55555555556,207.7142857142857,18499.91836734694,9.0,1111.0,1136.0,281.41606208601524,852.0,-0.0428272499380052,-1.097052904753699,87.56749920723132,1.0,80.0,9.0,8.0,465.4285714285714,457.9591836734693,266.0,9360.0,166.28571428571428,13490.77551020408,175.33333333333334,664.0,10.0,992.2222222222222,1122.0,298.0685147850622,1066.0,-0.695683425759104,-0.1636180461681688,60.70103632464416,1.0,24.0,10.0,9.0,453.77777777777777,18828.83950617284,220.0,8210.666666666666,116.88888888888889,9449.876543209875,207.4,14781.64,9.0,1110.25,1132.0,279.7417335686615,844.0,-0.019208926290106,-1.1080723697377473,63.4819036586152,1.0,-33.0,9.0,8.0,256.75,16752.9375,157.5,12342.75,9.0,1110.5,1130.0,278.53859696638096,842.0,-0.0131079522084219,-1.1071676707273477,91.49395474248158,1.0,-51.0,9.0,7.0,324.0,4646.857142857143,205.42857142857144,4756.2448979591845,9.0,1110.75,1133.0,281.79946327131285,852.0,-0.0241592192384953,-1.1025563923208557,698.955235550548,1.0,12.0,9.0,8.0,135.11111111111111,430.32098765432096,9.0,1110.75,1133.0,281.70363416186166,850.0,-0.0206949533333914,-1.109310446865837,596.8287646320553,1.0,-24.0,9.0,7.0,136.0,25.77777777777778,9.0,1110.75,1133.0,281.79946327131285,852.0,-0.0241592192384953,-1.1025563923208557,361.4330382381768,1.0,5.0,9.0,8.0,270.75,19377.9375,196.5,16627.75,148.88888888888889,202.76543209876544
30,2.0,12.0,812.1818181818181,814.0,4.130115160582017,12.0,-0.4934620195917654,-1.1301153776816546,340.9229045691906,1.0,2.0,12.0,11.0,426.1818181818182,1838.1487603305784,76.9090909090909,649.7190082644629,-9.454545454545457,803.7024793388429,179.16666666666666,503.6388888888889,12.0,812.3636363636364,814.0,3.391774201123205,10.0,-0.6210858822508697,-1.000297265160516,569.6525868870236,1.0,0.0,12.0,11.0,83.0909090909091,1549.3553719008262,-27.454545454545453,1855.3388429752065,-28.0,6741.714285714285,12.0,812.5454545454545,814.0,3.4208886767685054,10.0,-0.7549016523616434,-0.9192281911328536,302.6938686605773,1.0,0.0,12.0,11.0,381.6363636363636,39.867768595041326,150.54545454545453,129.5206611570248,51.81818181818182,341.4214876033057,24.88888888888889,11144.0987654321,12.0,812.1818181818181,814.0,7.743832523289765,28.0,-0.2380267710068564,-0.5649584452178327,87.79039454997594,1.0,6.0,12.0,11.0,70.0,2379.2,-10.0,3480.7272727272725,12.0,812.5454545454545,814.0,4.00825594273611,14.0,-0.7834559099573689,-0.4027587258040257,128.61710326730687,1.0,2.0,12.0,11.0,374.8,11970.56,88.6,3370.44,34.4,3559.0399999999995,206.3636363636364,17342.41322314049,12.0,812.7272727272727,814.0,3.221826390303518,10.0,-0.862674111566542,-0.5044626556858063,423.4552980283194,1.0,0.0,12.0,11.0,414.1818181818182,1679.6033057851237,116.54545454545456,1650.2479338842977,6.181818181818182,1548.6942148760331,-55.27272727272727,5724.561983471075,12.0,812.5454545454545,812.0,2.709029895591153,8.0,0.5949707732708566,-0.8883613343072434,65.66569324539363,1.0,0.0,12.0,11.0,432.9090909090909,1918.809917355372,93.6,1732.64,22.363636363636363,1897.3223140495868,82.33333333333333,1580.5555555555554,12.0,812.1818181818181,812.0,4.782889613805783,14.0,-0.3467431166946484,-1.1131427712252473,704.9317055030683,1.0,0.0,12.0,11.0,99.8,4333.96,31.454545454545453,1890.9752066115705,12.0,812.3636363636364,814.0,3.391774201123205,10.0,-0.6210858822508697,-1.000297265160516,1933.419662456228,1.0,0.0,12.0,1.0,230.0,0.0,136.0,0.0,12.0,812.3636363636364,814.0,3.391774201123205,10.0,-0.6210858822508697,-1.000297265160516,1510.2827376709872,1.0,-2.0,12.0,4.0,134.5,44.75,12.0,812.5454545454545,814.0,3.627261335138183,12.0,-0.4088122561060108,-0.9660993409257532,1036.7063073795664,1.0,0.0,12.0,11.0,137.66666666666666,150.55555555555554,12.0,812.3636363636364,814.0,3.891079010733218,12.0,-0.4786959866849559,-1.008037604164675,651.500538559398,1.0,-2.0,12.0,11.0,103.27272727272728,8919.471074380166,-9.636363636363637,4512.595041322314,92.9090909090909,11940.628099173551
31,1.0,10.0,1020.0,1026.0,19.888578520235065,52.0,-0.4216750254624766,-1.4799873753313977,596.2689781714637,1.0,-4.0,9.0,9.0,485.3333333333333,77.33333333333331,91.11111111111111,607.2098765432099,-42.0,47.11111111111112,144.0,104.0,10.0,1019.7777777777778,1026.0,19.987650508238985,54.0,-0.3374422584623388,-1.479435124931049,555.3723263570123,1.0,-2.0,9.0,9.0,98.0,222.0,-24.25,1016.4375,52.0,9798.857142857143,11.0,912.2,987.0,205.3337770557976,592.0,-1.3079194832857035,0.0227335840352065,97.49732575695984,1.0,22.0,10.0,10.0,470.8888888888889,6891.654320987655,240.0,4259.2,182.6,5853.64,255.4,14877.640000000005,6.0,1233.6,1030.0,423.4248929857573,1084.0,1.4959815177702531,0.2447702849149515,60.26909370599564,1.0,14.0,6.0,5.0,89.2,743.3600000000001,-32.8,1404.1600000000003,10.0,1020.0,1026.0,19.61858529274955,50.0,-0.3510363221887766,-1.5156809199473038,319.9478785102772,1.0,-4.0,9.0,9.0,472.22222222222223,1024.3950617283951,94.88888888888889,539.6543209876543,-22.88888888888889,821.432098765432,146.66666666666666,708.4444444444445,10.0,1020.0,1028.0,19.910912697424106,52.0,-0.3999879704946144,-1.491659796094834,258.44870843339186,1.0,34.0,9.0,9.0,514.2222222222222,126.61728395061728,89.77777777777777,5663.506172839506,12.666666666666666,6285.333333333334,67.11111111111111,9233.876543209875,10.0,1019.7777777777778,1026.0,19.987650508238985,54.0,-0.3374422584623388,-1.479435124931049,280.3942207528612,1.0,-2.0,9.0,9.0,510.22222222222223,21.7283950617284,45.77777777777778,39.50617283950617,-30.666666666666668,5.333333333333333,139.11111111111111,9.87654320987654,10.0,1019.7777777777778,1026.0,19.987650508238985,54.0,-0.3374422584623388,-1.479435124931049,888.5937284434973,1.0,0.0,9.0,9.0,88.88888888888889,640.9876543209876,7.111111111111111,738.7654320987654,10.0,1019.7777777777778,1026.0,19.9208309609022,52.0,-0.3633374852158554,-1.5094418942533576,1557.1089318866675,1.0,-4.0,9.0,9.0,85.55555555555556,543.8024691358025,6.0,490.6666666666667,10.0,1020.0,1026.0,19.888578520235065,52.0,-0.4216750254624766,-1.4799873753313977,1648.0616990938208,1.0,-2.0,9.0,8.0,128.88888888888889,49.876543209876544,10.0,1020.0,1026.0,19.61858529274955,50.0,-0.3510363221887766,-1.5156809199473038,1201.8408544824429,1.0,0.0,9.0,8.0,138.4,64.64000000000001,10.0,1019.7777777777778,1026.0,19.987650508238985,54.0,-0.3374422584623388,-1.479435124931049,862.698769978512,1.0,-2.0,9.0,9.0,91.11111111111111,105.87654320987652,-16.88888888888889,713.8765432098764,87.0,293.0
32,2.0,10.0,947.7777777777778,942.0,10.768036835187305,28.0,0.2320719146025918,-1.723903630332391,409.5874116506628,1.0,-2.0,10.0,9.0,409.77777777777777,1035.9506172839506,107.55555555555556,844.246913580247,4.0,540.4444444444445,180.6,779.24,10.0,947.5555555555557,942.0,9.274949668759648,26.0,0.255273507605975,-1.595048909826913,194.6059596506154,1.0,-6.0,10.0,9.0,73.55555555555556,2278.024691358025,-30.0,941.3333333333334,172.0,777.6,10.0,938.0,940.0,40.507886749235496,116.0,-0.7344181968380962,-0.7341192751978158,11.70129302546761,1.0,-6.0,10.0,9.0,397.77777777777777,4287.506172839506,159.77777777777777,653.7283950617284,77.11111111111111,1039.20987654321,218.2,8787.560000000001,10.0,947.3333333333334,950.0,7.71722460186015,18.0,-0.0825187749809206,-1.796725328580974,49.35260630575658,1.0,10.0,10.0,9.0,94.44444444444444,2341.135802469136,45.77777777777778,2661.728395061729,10.0,947.7777777777778,942.0,10.2173901622868,26.0,0.1994279048528767,-1.8176847775205032,312.3185913624185,1.0,-2.0,10.0,9.0,355.3333333333333,740.4444444444446,92.22222222222224,171.95061728395063,13.333333333333334,391.1111111111111,225.4,760.8399999999999,10.0,939.5555555555557,940.0,57.50190549714391,136.0,0.3241965734791418,-1.601141637622011,11.763411775098604,1.0,-8.0,10.0,9.0,362.44444444444446,2765.135802469136,126.66666666666669,2500.4444444444443,53.55555555555556,1849.5802469135804,149.0,763.4,10.0,947.7777777777778,942.0,10.389928646720854,28.0,0.3011377206818519,-1.6364785807379467,364.276469517703,1.0,-4.0,10.0,9.0,332.0,5160.0,87.77777777777777,4655.506172839506,10.0,3166.222222222222,27.0,3675.4,10.0,947.7777777777778,942.0,9.354473413266309,24.0,0.2786872703546767,-1.7276151725613949,1164.0333516202627,1.0,2.0,10.0,8.0,76.75,701.9375,-4.25,718.4375,10.0,947.7777777777778,942.0,10.389928646720854,28.0,0.3011377206818519,-1.6364785807379467,1248.7250843255467,1.0,-4.0,10.0,9.0,129.55555555555554,10695.802469135802,42.888888888888886,5579.654320987655,10.0,947.7777777777778,942.0,10.2173901622868,26.0,0.1994279048528767,-1.8176847775205032,1097.5796662651924,1.0,-6.0,10.0,8.0,18.0,3907.2,10.0,947.7777777777778,942.0,9.908220804270202,26.0,0.3405275251616218,-1.599187681420522,874.8725457868156,1.0,2.0,10.0,8.0,69.6,4489.4400000000005,10.0,947.7777777777778,942.0,9.354473413266309,24.0,0.2786872703546767,-1.7276151725613949,588.2519581988,1.0,-2.0,10.0,8.0,80.0,6059.0,6.0,9077.0,46.8,7334.56
33,2.0,14.0,686.1538461538462,686.0,10.361512763373993,40.0,0.5401788064049958,-0.0259872810578358,324.4944361922865,1.0,0.0,14.0,13.0,382.46153846153845,1105.3254437869823,72.46153846153847,856.7100591715977,8.0,935.3846153846154,67.0,1913.571428571429,14.0,685.8461538461538,686.0,10.181779758630338,38.0,0.3770656258551731,-0.374277850753733,285.28552106444346,1.0,0.0,14.0,13.0,84.61538461538461,1047.621301775148,-6.461538461538462,1135.4792899408285,92.0,356.57142857142856,14.0,674.0,680.0,96.63571564624304,326.0,0.0005073487194865,-0.4539648418098574,107.74782518541303,1.0,-14.0,13.0,13.0,302.3636363636364,1540.2314049586778,127.0,2719.6666666666665,64.66666666666667,1544.888888888889,109.07692307692308,1191.7633136094678,14.0,686.0,686.0,10.55389100685692,40.0,0.486846182476497,-0.0963187936876166,212.9863245610373,1.0,2.0,2.0,13.0,200.6153846153846,2622.3905325443784,97.84615384615384,1279.6686390532543,14.0,686.1538461538462,686.0,10.53818079356536,40.0,0.4615277803924736,-0.0893314625972769,186.62847557723785,1.0,-2.0,14.0,13.0,326.15384615384613,1614.4378698224853,94.46153846153848,1966.8639053254444,39.53846153846154,2383.4792899408285,63.57142857142857,2448.1020408163267,14.0,685.5384615384615,682.0,94.39737234333086,302.0,-0.155740135692971,-1.055726791935389,91.46610045171587,1.0,10.0,14.0,12.0,351.1666666666667,7047.6388888888905,55.16666666666666,249.63888888888889,-13.833333333333334,864.9722222222223,61.142857142857146,2350.6938775510203,14.0,686.0,686.0,10.347797982030915,38.0,0.6464810372245829,-0.1158343242172019,413.8259446086896,1.0,0.0,14.0,13.0,400.3076923076923,598.6745562130178,68.92307692307692,658.2248520710059,-7.538461538461538,619.171597633136,42.142857142857146,1441.4081632653058,14.0,686.0,686.0,10.436621911474848,40.0,0.5424185140719118,-0.0416068179641864,546.037346900778,1.0,0.0,14.0,13.0,42.30769230769231,567.2899408284025,-24.923076923076923,164.07100591715974,14.0,686.1538461538462,686.0,10.479622379031632,40.0,0.533965420296636,-0.1356773929845496,710.9807305181221,1.0,8.0,14.0,12.0,83.66666666666667,2919.222222222222,-3.1666666666666665,2344.305555555555,14.0,686.0,686.0,10.466062370273814,38.0,0.5571780931403659,-0.1336321171569245,673.5190176252345,1.0,8.0,14.0,13.0,41.42857142857143,2796.8163265306125,14.0,686.0,686.0,10.436621911474848,40.0,0.5424185140719118,-0.0416068179641864,605.7870321872142,0.9285714285714286,-2.0,14.0,13.0,71.28571428571429,1556.34693877551,14.0,686.0,684.0,10.28815599833876,38.0,0.6035388972119026,0.0118307193077344,472.4229166878599,1.0,0.0,14.0,13.0,73.23076923076923,964.639053254438,-12.0,795.0769230769231,74.71428571428571,2310.061224489796
34,2.0,13.0,777.5,780.0,17.14885807665727,54.0,-0.3721352467028269,-1.2065024758225191,608.1748980291876,1.0,-2.0,13.0,12.0,444.5,6698.083333333333,85.5,2519.4166666666665,5.166666666666667,1776.3055555555557,124.6153846153846,3763.313609467456,13.0,777.5,780.0,17.012250488006185,54.0,-0.3882806902181435,-1.1558586666969557,440.3702129212319,1.0,-1.0,13.0,12.0,68.5,1126.0833333333333,-36.66666666666666,1564.2222222222224,152.76923076923077,1619.4082840236686,13.0,777.3333333333334,782.0,16.87865186822955,54.0,-0.5333411787553916,-1.0165205984214356,6.30300466585979,1.0,2.0,13.0,12.0,481.1666666666667,1374.3055555555557,78.83333333333333,1388.3055555555554,-9.5,1910.75,160.76923076923077,3948.639053254437,13.0,777.3333333333334,779.0,17.403703309608815,56.0,-0.2892203133315096,-1.2173876300013593,74.48079399021611,0.9230769230769232,-9.0,6.0,12.0,157.63636363636363,2817.3223140495866,80.54545454545455,3374.6115702479333,13.0,777.3333333333334,780.0,17.68866554856213,56.0,-0.3997755620799869,-1.172425829674583,405.5290194487962,1.0,14.0,13.0,10.0,322.5,6883.75,168.0,7741.714285714285,120.5,7101.75,80.16666666666667,6236.972222222222,13.0,777.5,781.0,16.973017802775477,50.0,-0.4069315036046762,-1.2542216875135814,158.54860094481518,1.0,-1.0,13.0,12.0,501.5,1590.0833333333333,64.83333333333333,1480.3055555555554,-43.333333333333336,2118.888888888889,146.0,1880.0,13.0,777.3333333333334,780.0,17.46106780494506,54.0,-0.3712827456888409,-1.245029707009831,107.4050426745996,1.0,3.0,3.0,12.0,326.0,13578.666666666666,83.5,1208.0833333333333,16.0,1290.0,40.66666666666666,9990.22222222222,13.0,777.5,780.0,17.012250488006185,54.0,-0.3882806902181435,-1.1558586666969557,472.0854103997787,1.0,-1.0,12.0,12.0,47.5,564.0833333333334,-45.833333333333336,472.9722222222224,13.0,777.5,780.0,17.45709025009609,56.0,-0.4414903564754466,-1.0723551964015203,1170.0619900633903,1.0,-3.0,12.0,12.0,51.16666666666666,542.9722222222222,-52.16666666666666,564.3055555555553,13.0,777.5,780.0,17.45709025009609,56.0,-0.4414903564754466,-1.0723551964015203,1641.795855499372,1.0,-2.0,12.0,12.0,154.33333333333334,54.55555555555554,13.0,777.3333333333334,780.0,17.441967269268172,56.0,-0.3433557418132125,-1.188799147992085,1820.383095047707,1.0,-2.0,12.0,10.0,163.5,86.75,13.0,777.5,780.0,17.45709025009609,56.0,-0.4414903564754466,-1.0723551964015203,1572.3738328914912,1.0,-4.0,13.0,10.0,143.4,1248.84,38.8,1300.16,151.84615384615384,2409.5147928994083
35,1.0,9.0,1065.0,1065.0,7.54983443527075,22.0,0.0,-1.497691597414589,301.9727023381004,1.0,0.0,9.0,8.0,265.0,5688.0,72.25,38.4375,-35.5,8.75,82.88888888888889,15736.098765432098,9.0,1065.0,1063.0,7.0,18.0,0.1749271137026239,-1.6601416076634736,415.5475878052779,1.0,2.0,9.0,8.0,81.5,7285.75,-26.25,2398.4375,164.22222222222223,805.7283950617284,9.0,1064.75,1063.0,7.137051211810099,18.0,0.1704575714918219,-1.5694049456133088,145.4694880995147,1.0,24.0,9.0,8.0,474.0,741.0,222.5,6908.75,176.5,6027.75,179.11111111111111,164.54320987654322,9.0,1065.0,1065.0,8.06225774829855,22.0,0.0,-1.5985798816568046,149.02869030358227,1.0,-3.0,9.0,8.0,311.5,2268.75,212.0,6252.0,9.0,1065.25,1064.0,5.651327277728657,14.0,0.151151648881771,-1.6983007877574,204.6694384334644,1.0,-1.0,8.0,8.0,512.5714285714286,11240.816326530612,96.25,709.4375,-24.25,412.4375,204.0,3317.0,9.0,1064.75,1064.0,7.996092795859738,22.0,0.0874694063203239,-1.5489890867811595,275.7352226477348,1.0,19.0,9.0,8.0,461.5,198.75,149.25,12253.9375,93.0,11643.0,159.33333333333334,598.2222222222222,9.0,1064.75,1067.0,44.29376366939256,176.0,-0.1836074593786066,0.9181992026199696,-24.185348620888234,1.0,8.0,9.0,8.0,583.75,2695.4375,145.75,10634.4375,53.75,6624.4375,189.77777777777777,1371.0617283950617,9.0,1065.0,1063.0,8.660254037844387,22.0,0.1662768775266122,-1.6650666666666667,-32.551814219152895,1.0,-2.0,9.0,8.0,98.0,9312.0,2.5,4942.75,9.0,1065.0,1065.0,8.06225774829855,22.0,0.0,-1.5985798816568046,128.27234666649355,1.0,1.0,9.0,8.0,82.25,5617.4375,-24.75,2368.9375,9.0,1065.0,1064.0,7.745966692414834,20.0,-0.006454972243679,-1.5558333333333334,1243.4076511243654,1.0,0.0,9.0,8.0,12.666666666666666,2516.444444444444,9.0,1065.0,1063.0,7.0,18.0,0.1749271137026239,-1.6601416076634736,1677.522555290695,1.0,-6.0,9.0,3.0,-19.77777777777778,0.3950617283950617,9.0,1065.0,1064.0,7.745966692414834,20.0,-0.006454972243679,-1.5558333333333334,928.8636513910892,1.0,-9.0,9.0,7.0,152.57142857142858,13078.530612244896,32.0,12506.285714285714,34.666666666666664,12008.0
36,1.0,9.0,1021.5,1017.0,14.688430821568382,46.0,0.4707277919048647,-1.0336063933917763,672.4031924857458,1.0,-1.0,9.0,8.0,496.25,56.4375,60.0,183.0,-36.0,27.0,163.33333333333334,288.0,9.0,1021.5,1015.0,14.517231140957977,46.0,0.5223881757894225,-0.977368574359494,912.4077273779588,1.0,-1.0,9.0,8.0,68.0,755.0,-39.75,440.4375,158.88888888888889,545.8765432098766,9.0,1022.0,1017.0,15.033296378372908,46.0,0.5439253603890895,-1.016289451014175,245.2403634670788,1.0,-9.0,2.0,8.0,475.0,25.0,112.25,2021.4375,31.75,1514.4375,230.0,64.0,9.0,1021.5,1016.0,14.413535305399574,44.0,0.5823347032639378,-1.0259571565726997,157.46200173998056,1.0,16.0,9.0,8.0,279.5,3167.75,207.0,5635.0,9.0,1021.5,1015.0,14.343988287781052,44.0,0.5877966821377069,-1.0225193369839471,218.20012123774168,1.0,0.0,9.0,8.0,485.0,20.0,68.75,4189.9375,-5.5,4830.75,161.55555555555554,157.13580246913585,9.0,1021.75,1016.0,14.779631253857453,44.0,0.5299312754611203,-1.160934013643034,576.9767579262357,1.0,-1.0,9.0,8.0,519.5,255.75,81.25,715.9375,-40.75,617.9375,204.66666666666663,238.22222222222223,9.0,1021.5,1017.0,14.688430821568382,46.0,0.4707277919048647,-1.0336063933917763,113.58050313015076,1.0,-1.0,9.0,8.0,309.25,3461.9375,57.75,62.4375,-30.0,1.0,32.888888888888886,1291.6543209876545,9.0,1021.5,1015.0,14.517231140957977,46.0,0.5223881757894225,-0.977368574359494,452.2290567241824,1.0,-1.0,9.0,8.0,83.5,781.75,-11.5,773.75,9.0,1021.75,1016.0,15.081031131855672,46.0,0.6424486524758328,-0.9273762507342936,1001.2468414366116,1.0,-6.0,9.0,4.0,87.0,365.0,-2.0,300.0,9.0,1021.5,1017.0,14.688430821568382,46.0,0.4707277919048647,-1.0336063933917763,1372.7604572220257,1.0,-7.0,9.0,2.0,156.66666666666666,23.111111111111107,9.0,1021.5,1016.0,14.517231140957977,44.0,0.5537657855975155,-1.068147566520181,1370.7680374462243,1.0,-2.0,9.0,2.0,169.11111111111111,21.4320987654321,9.0,1021.5,1016.0,14.551632210855248,46.0,0.5094427231995143,-0.9842614185213736,1043.2080210262684,1.0,-5.0,9.0,7.0,70.28571428571429,411.9183673469388,-41.142857142857146,574.6938775510205,165.11111111111111,35.65432098765432
37,1.0,9.0,1033.0,1043.0,26.551836094703507,82.0,-0.5307963250077442,-0.9745706956390524,439.21844154445387,1.0,0.0,9.0,8.0,494.0,1262.0,85.75,1046.4375,-11.0,1276.0,120.44444444444444,402.4691358024692,9.0,1032.75,1044.0,27.146592788046163,84.0,-0.5497297235684738,-0.9849499108022955,651.4666440864141,1.0,3.0,9.0,8.0,61.75,70.4375,-51.5,42.75,111.33333333333331,444.88888888888886,9.0,1033.0,1044.0,26.476404589747453,82.0,-0.5431046299552795,-0.9586997177457924,215.64877518278385,1.0,0.0,9.0,8.0,555.0,2327.0,85.25,7171.9375,17.75,8104.4375,169.11111111111111,4709.432098765432,9.0,1035.25,1045.0,27.017355533064297,84.0,-0.8180231392793628,-0.6918144094576149,74.02203538467904,1.0,-6.0,9.0,8.0,168.75,5350.9375,68.5,4215.75,9.0,1032.75,1041.0,26.906086671978144,84.0,-0.4996467196227005,-0.9810102924149372,115.77076305362937,1.0,-2.0,9.0,8.0,455.75,1389.4375,98.5,1264.75,23.0,1466.0,160.0,249.77777777777777,9.0,1032.75,1043.0,26.15219876033371,82.0,-0.487423260326364,-0.9735356753677844,432.4684961311577,1.0,0.0,9.0,8.0,544.75,1203.9375,81.25,4876.9375,-18.25,7271.4375,63.55555555555556,6033.580246913579,9.0,1032.75,1044.0,26.906086671978144,84.0,-0.5711107696073636,-0.9219359624263364,213.85531849786088,1.0,5.0,9.0,8.0,402.5,3043.75,77.25,957.9375,-12.0,1154.0,102.66666666666669,1132.4444444444446,9.0,1033.0,1044.0,26.476404589747453,82.0,-0.5431046299552795,-0.9586997177457924,255.6687113282304,1.0,5.0,9.0,8.0,51.0,233.0,-41.5,147.75,9.0,1032.75,1042.0,27.0358558214827,86.0,-0.4565453899957926,-0.9340377899808824,530.5134909642506,1.0,-1.0,9.0,8.0,75.5,4802.75,-10.0,6228.0,9.0,1032.75,1043.0,26.980316899547343,84.0,-0.5589251502419504,-0.9376577342496968,1127.1742161175684,1.0,2.0,9.0,5.0,107.2,188.16000000000005,9.0,1032.75,1043.0,26.980316899547343,84.0,-0.5589251502419504,-0.9376577342496968,1346.222031353708,1.0,2.0,9.0,7.0,101.75,243.4375,9.0,1032.75,1042.0,26.190408549696205,82.0,-0.4805337736650201,-0.9801141837163568,1379.2397499843478,1.0,1.0,9.0,7.0,60.85714285714285,240.97959183673467,-48.57142857142857,160.81632653061226,46.0,6882.666666666667
38,0.0,16.0,571.7333333333333,562.0,69.40457877946926,234.0,-0.070543617168849,-0.9393331792201765,258.96704086971647,1.0,-36.0,15.0,11.0,378.3636363636364,5967.8677685950415,98.9090909090909,3096.99173553719,28.545454545454547,3002.9752066115702,84.13333333333334,3615.182222222222,16.0,571.7333333333333,562.0,69.98234698042707,240.0,-0.0523212784506954,-0.8955011656282217,308.430482519864,1.0,-40.0,15.0,10.0,114.88888888888889,2072.9876543209875,38.888888888888886,2901.4320987654323,118.0,2409.0666666666666,16.0,576.9333333333333,590.0,81.07565739617671,302.0,-0.6357931148420956,-0.360102479003523,57.267701541068206,0.9375,-14.0,16.0,14.0,223.84615384615384,4079.668639053255,118.76923076923076,5052.639053254437,51.38461538461539,3922.082840236688,40.75,4870.9375,15.0,574.2857142857143,586.0,86.97736041344206,312.0,0.0447861268242755,-0.7978796045595566,40.9088188888756,0.9333333333333332,15.0,10.0,14.0,99.33333333333331,2078.888888888889,44.833333333333336,1835.638888888889,16.0,571.3333333333334,578.0,68.36633349504386,228.0,-0.2525973432696146,-0.9352697616682653,122.40121700647296,1.0,-2.0,16.0,11.0,352.54545454545456,3589.157024793388,110.0,2875.6363636363635,30.181818181818183,3449.0578512396696,89.25,1462.4375,16.0,571.7333333333333,564.0,69.5772632082892,238.0,-0.0557973739160553,-0.9132381390632096,179.80454788156516,0.875,-33.0,15.0,11.0,372.22222222222223,3256.395061728395,103.33333333333331,3398.222222222222,22.22222222222222,3131.9506172839506,119.46666666666668,4993.315555555556,14.0,659.2307692307693,618.0,134.67119722103442,440.0,0.7135183334286677,-0.6598663879932514,64.85407140798897,1.0,-34.0,11.0,13.0,284.8,3382.56,116.46153846153848,2556.4023668639056,32.30769230769231,2356.828402366864,33.45454545454545,1920.7933884297524,16.0,571.8666666666667,558.0,69.11426930976135,240.0,0.0091492913316172,-0.918983559396244,258.9223446921337,0.75,-81.0,6.0,14.0,107.55555555555556,3686.913580246913,-6.222222222222222,2468.83950617284,16.0,571.7333333333333,564.0,69.11581263036379,236.0,-0.0596943823790442,-0.9356781868671438,894.4918507151832,0.875,-56.0,15.0,9.0,129.71428571428572,3246.204081632653,6.857142857142857,2735.836734693877,16.0,571.8666666666667,562.0,69.44145415784116,236.0,-0.0626745980255407,-0.9223122364425,2140.398878004877,0.6875,-50.0,15.0,4.0,111.06666666666666,726.328888888889,16.0,571.8666666666667,562.0,69.61787765286219,236.0,-0.0595431919695731,-0.9296312227449834,1824.7460317059213,0.75,-27.0,14.0,4.0,99.85714285714286,1880.836734693877,16.0,571.7333333333333,564.0,69.33538458504111,236.0,-0.0639618495697913,-0.913275475793102,998.0111095047826,0.8125,-13.0,14.0,8.0,146.57142857142858,4183.673469387755,40.85714285714285,1391.8367346938778,114.14285714285714,1394.5510204081636
39,0.0,24.0,411.4782608695652,412.0,3.0768358283398487,10.0,-0.0595932997608659,-1.0093575518786555,427.7537511761211,0.8333333333333334,2.0,17.0,21.0,222.0,1698.909090909091,58.0,1192.0,15.692307692307692,1620.2130177514794,53.294117647058826,249.3840830449828,24.0,411.4782608695652,412.0,3.2951817950428546,10.0,-0.2792896104701985,-1.1094148866008255,577.0906949277468,0.2916666666666667,-10.0,3.0,23.0,16.4,10.24,-32.8,29.76,72.0,98.66666666666669,6.0,1150.8,1234.0,476.45121471143295,1210.0,-0.2925190286246317,-1.488299345232542,185.89531114771887,1.0,-4.0,6.0,5.0,627.2,608.9599999999999,333.2,868.1600000000001,182.4,616.64,289.0,4027.6666666666665,17.0,540.0,414.0,279.4512479843309,832.0,1.882501318487944,1.7994893887515238,-2.5599761381603647,0.3529411764705882,-422.0,17.0,13.0,33.333333333333336,0.888888888888889,-12.666666666666666,14.22222222222222,24.0,411.5652173913044,412.0,3.727991497430612,14.0,-0.3668595132231108,-0.8434837744106027,145.68093473086637,1.0,0.0,24.0,23.0,194.0,522.7826086956521,91.91304347826087,917.0359168241964,15.73913043478261,1298.5406427221171,14.25,568.1041666666666,24.0,411.4782608695652,412.0,3.8771298799318186,14.0,-0.417446312153136,-0.6984138229781234,366.7627404027548,0.25,-16.0,7.0,23.0,322.0,0.0,25.6,298.23999999999995,-20.0,340.8,70.85714285714286,1171.265306122449,24.0,411.4782608695652,412.0,3.3475437486817663,12.0,-0.4187744728465616,-0.7151158025865163,167.84434779706342,0.875,2.0,6.0,21.0,255.6,7493.44,49.888888888888886,1110.432098765432,9.333333333333334,1640.4444444444443,6.333333333333333,1495.222222222222,24.0,411.4782608695652,412.0,2.9616324114654606,10.0,-0.2694125869187013,-0.8452378121284267,556.6071901683742,0.0,0.0357880894232575,1.0,23.0,0.0326883336464399,0.0326883336464399,0.0320308096937817,0.0320308096937817,24.0,411.4782608695652,412.0,3.3990991801203587,12.0,-0.5987044398251149,-0.2160336887695142,767.3653241344804,0.0,0.0361638173962051,3.0,22.0,0.0447116287807627,0.0447116287807627,0.0435844448619199,0.0435844448619199,24.0,411.4782608695652,412.0,3.832011223744471,14.0,-0.4049529775317194,-0.6156897080207719,820.3566210836467,0.0,0.0336276535788089,1.0,19.0,-14.0,0.0,24.0,411.4782608695652,412.0,2.9616324114654606,10.0,-0.5104259890833139,-0.6895570749108373,813.2670519083696,0.0833333333333333,0.0274281420251737,1.0,16.0,66.0,0.0,24.0,411.4782608695652,412.0,3.5492750664275747,12.0,-0.6293771606009967,-0.4404184242724906,799.6418990912471,0.0416666666666666,0.0222618823971444,0.0,21.0,16.0,0.0,-48.0,0.0,0.0373849333082848,0.0373849333082848
40,1.0,9.0,1056.75,1188.0,270.5345403086268,770.0,-1.3329373654179737,0.0878063956782511,329.63036038970785,1.0,2.0,9.0,7.0,552.0,5259.428571428572,82.57142857142857,847.6734693877552,-33.42857142857143,1221.387755102041,210.88888888888889,4081.8765432098767,8.0,1207.428571428571,1210.0,26.353948703086186,68.0,-0.2778554070728023,-1.4115716527977027,519.9067178508219,1.0,10.0,8.0,7.0,81.42857142857143,1238.530612244898,-34.0,741.7142857142857,236.0,553.0,8.0,1207.7142857142858,1212.0,26.5637469695302,72.0,-0.4001992879489981,-1.3658148071455556,191.37333948976763,1.0,-4.0,8.0,7.0,318.57142857142856,5143.673469387756,81.42857142857143,1406.530612244898,-1.1428571428571428,928.9795918367344,44.25,10066.4375,8.0,1207.428571428571,1210.0,26.69862031136838,70.0,-0.3318826005027827,-1.3649034233422892,137.908538429844,1.0,-38.0,5.0,7.0,410.0,1388.571428571429,344.85714285714283,646.6938775510205,8.0,1207.428571428571,1208.0,26.80542132190609,74.0,-0.2587108176854942,-1.3400961422444306,240.87680571723817,1.0,40.0,8.0,7.0,436.57142857142856,1616.8163265306123,161.42857142857142,9041.95918367347,81.42857142857143,12584.81632653061,177.0,4336.0,8.0,1207.7142857142858,1210.0,27.032859822891133,72.0,-0.3081699921972452,-1.3645116822038033,350.8353555797336,1.0,14.0,8.0,7.0,456.2857142857143,9882.775510204085,92.28571428571428,619.9183673469387,-26.857142857142858,1070.6938775510205,191.25,10430.9375,8.0,1207.7142857142858,1212.0,26.90573112455669,72.0,-0.3223661517882658,-1.3411190011004854,56.57060097668487,1.0,2.0,8.0,7.0,575.7142857142857,957.0612244897958,62.0,884.5714285714286,-8.285714285714286,895.3469387755101,190.75,105.9375,8.0,1207.428571428571,1210.0,27.624301634907017,74.0,-0.2948843666887784,-1.3273283281782255,155.16300177549803,1.0,2.0,8.0,7.0,73.14285714285714,699.265306122449,-5.142857142857143,748.4081632653061,8.0,1207.428571428571,1210.0,27.458317203963343,74.0,-0.3314941170817347,-1.3422239055151886,374.3874973810644,1.0,0.0,8.0,7.0,58.285714285714285,222.20408163265307,-46.0,822.8571428571429,8.0,1207.7142857142858,1210.0,27.032859822891133,72.0,-0.3081699921972452,-1.3645116822038033,660.3888056542679,1.0,0.0,8.0,7.0,181.0,38.0,8.0,1207.7142857142858,1212.0,26.90573112455669,72.0,-0.3223661517882658,-1.3411190011004854,1113.744709914538,1.0,-4.0,8.0,5.0,156.25,4598.4375,8.0,1207.428571428571,1210.0,27.10222522681298,72.0,-0.2761377987006689,-1.3928467025914415,787.5581678511558,1.0,-6.0,8.0,7.0,104.57142857142856,859.1020408163266,-23.142857142857142,883.2653061224488,326.75,2351.9375
41,1.0,8.0,1272.0,1268.0,18.63943592034296,52.0,0.2964851411325327,-1.2924168975069257,525.8128685552805,1.0,-2.0,8.0,7.0,460.0,658.2857142857143,108.0,11710.857142857143,29.714285714285715,15437.061224489797,127.0,4070.0,8.0,1272.0,1268.0,19.24280941769456,54.0,0.2742727251107442,-1.2389974851394605,1109.412023312232,1.0,-4.0,7.0,7.0,128.57142857142858,9996.244897959185,22.857142857142858,15560.979591836736,117.42857142857144,675.1020408163266,8.0,1272.0,1268.0,19.063802648699745,54.0,0.3206709416700117,-1.2284027530556545,610.3660985084208,1.0,2.0,7.0,7.0,414.2857142857143,32.48979591836735,193.1428571428572,9078.69387755102,92.85714285714286,13483.265306122446,126.85714285714286,207.8367346938776,8.0,1288.571428571429,1276.0,38.00322220495499,114.0,1.0882089669250854,-0.0230108819594567,80.05560930277272,1.0,-12.0,7.0,7.0,253.1428571428572,23339.26530612245,205.1428571428572,23763.265306122445,8.0,1272.2857142857142,1266.0,19.28518517792709,58.0,0.2425195791459148,-1.131060277294514,75.15047330470193,1.0,-120.0,7.0,7.0,447.7142857142857,1595.9183673469386,182.0,19371.42857142857,124.28571428571428,19865.632653061224,154.57142857142858,1141.3877551020407,8.0,1272.0,1270.0,18.547236990991408,52.0,0.3009286694049444,-1.258788534342888,856.1972097436361,1.0,2.0,7.0,7.0,414.57142857142856,43.10204081632653,148.0,74.28571428571429,28.0,128.0,101.42857142857144,808.8163265306123,8.0,1271.7142857142858,1270.0,19.13645948530326,54.0,0.3528571288617581,-1.2294031523048223,57.62294901807465,1.0,2.0,7.0,7.0,462.2857142857143,691.9183673469387,59.42857142857143,647.6734693877551,-21.428571428571427,629.3877551020407,122.0,249.1428571428572,8.0,1272.0,1268.0,19.77010730514993,56.0,0.3407590055673735,-1.234200266748743,94.54267297520823,1.0,-28.0,8.0,7.0,273.6666666666667,24196.55555555555,208.28571428571428,31325.0612244898,8.0,1272.0,1270.0,18.547236990991408,52.0,0.3009286694049444,-1.258788534342888,781.1056007408051,1.0,18.0,7.0,6.0,228.3333333333333,20881.888888888887,113.0,25323.666666666668,9.0,1113.0,1261.0,281.3823022153312,752.0,-1.2179559110713098,-0.3863887476250913,1582.7065274163133,1.0,-54.0,7.0,6.0,67.6,7640.639999999999,8.0,1272.0,1268.0,19.063802648699745,54.0,0.3206709416700117,-1.2284027530556545,1669.520630491262,1.0,44.0,7.0,5.0,93.42857142857144,1557.387755102041,8.0,1272.0,1270.0,18.547236990991408,52.0,0.3009286694049444,-1.258788534342888,1478.4364136141476,1.0,28.0,7.0,4.0,260.0,14216.0,158.5,22746.75,93.33333333333331,230.22222222222223
42,2.0,14.0,723.6923076923077,720.0,33.05795520547004,112.0,-0.0129920639125346,-0.8720755937242628,751.4548054839906,1.0,-2.0,13.0,13.0,405.6923076923077,2266.3668639053258,79.6923076923077,2183.9053254437868,-1.8461538461538465,2955.3609467455617,141.84615384615384,547.360946745562,14.0,723.5384615384615,722.0,33.44022309599712,114.0,-0.0027775562274969,-0.901257041960414,712.8261160492058,1.0,-2.0,13.0,13.0,64.46153846153847,1477.6331360946742,-19.846153846153847,2557.8224852071007,86.15384615384616,481.5147928994083,13.0,720.1666666666666,718.0,32.48033593148664,112.0,0.1092976152080403,-0.740572033499443,165.60934429734905,1.0,2.0,13.0,12.0,375.5,3617.4166666666665,128.83333333333334,1126.9722222222222,80.66666666666667,1011.5555555555552,216.15384615384616,4280.899408284024,14.0,724.9230769230769,712.0,52.79635992473132,218.0,1.6567919870865662,2.79799613229428,105.2222196843339,1.0,-6.0,14.0,13.0,92.15384615384616,1330.7455621301776,8.923076923076923,2039.147928994083,14.0,723.6923076923077,722.0,32.66469422052975,110.0,-0.0068416261439782,-0.9279236400397126,398.6884340596216,1.0,4.0,13.0,13.0,366.61538461538464,1995.313609467456,104.76923076923076,3316.023668639053,49.07692307692308,3449.6094674556216,140.6153846153846,1259.92899408284,14.0,723.6923076923077,722.0,33.57513873133516,112.0,0.0379969380450507,-0.9521786094690396,345.32213323826176,1.0,-2.0,13.0,13.0,386.1538461538461,881.5147928994083,57.07692307692308,1831.763313609468,-4.461538461538462,2765.0177514792904,135.23076923076923,856.9467455621301,14.0,723.5384615384615,720.0,32.827323011398214,112.0,-0.0010814113439863,-0.8622214078286978,77.97703430646875,1.0,-46.0,13.0,13.0,288.3076923076923,4188.828402366865,131.23076923076923,501.8698224852071,74.61538461538461,733.775147928994,50.61538461538461,2179.3136094674555,14.0,723.8461538461538,720.0,32.773925268646,110.0,0.0820304553364557,-0.9720020411843088,64.35246054289352,0.9285714285714286,8.0,13.0,13.0,142.5,5938.083333333333,69.0,6886.333333333333,14.0,724.0,720.0,32.39183182888503,110.0,0.0179256660863662,-0.8577261977451176,230.7556927712185,1.0,-2.0,13.0,13.0,106.6153846153846,2952.2366863905327,23.846153846153847,4611.9763313609465,14.0,723.6923076923077,720.0,32.437833123553105,110.0,0.0091657575199512,-0.8583077872040472,618.5356190991446,1.0,-30.0,13.0,13.0,115.23076923076924,196.63905325443787,14.0,723.6923076923077,720.0,32.99273723199049,110.0,0.0185888548975327,-0.9374335610268378,748.7984221718434,1.0,-4.0,13.0,13.0,112.76923076923076,191.1005917159763,14.0,723.6923076923077,722.0,32.57036079577357,110.0,-0.0034322847528679,-0.8771383794885019,802.1753039232439,1.0,-12.0,13.0,13.0,78.76923076923077,2077.2544378698226,0.3076923076923077,2382.674556213017,108.15384615384616,832.284023668639
43,1.0,9.0,1077.5,1067.0,24.24355584480132,64.0,0.6213528549033325,-1.258127938535255,299.11744928869507,1.0,-6.0,9.0,8.0,449.5,772.75,74.75,726.9375,7.25,1333.9375,157.77777777777777,434.17283950617286,9.0,1077.75,1069.0,29.333214961882376,94.0,1.3598717191154537,0.8586929026420678,732.6492249222684,1.0,-3.0,9.0,8.0,129.5,1090.75,42.25,1787.4375,51.2,5015.359999999999,9.0,1077.75,1070.0,29.789889224366043,98.0,1.4229704846734774,1.0605508459803366,441.6371489836944,1.0,-2.0,9.0,8.0,439.75,319.4375,141.75,175.4375,62.5,164.75,144.88888888888889,1744.0987654320988,9.0,1078.0,1071.0,28.35489375751565,94.0,1.341472613444506,0.8890250241330659,95.99460020613051,1.0,-11.0,9.0,8.0,150.75,4537.9375,74.5,5331.75,9.0,1076.75,1065.0,29.96560528339116,98.0,1.5207140418113738,1.1504585307595183,64.27229651444466,1.0,-16.0,9.0,8.0,424.5,911.75,103.75,6077.4375,42.0,6770.0,178.44444444444446,300.2469135802469,9.0,1077.75,1070.0,29.196532328343377,94.0,1.3759258432008452,0.9293303355783848,576.9766404240934,1.0,-1.0,9.0,8.0,428.75,105.9375,140.25,142.4375,58.75,154.9375,80.0,5213.333333333333,9.0,1077.5,1068.0,24.57132475061123,62.0,0.6526316756414035,-1.1994609261473963,38.722433276174485,1.0,-3.0,9.0,8.0,384.25,6882.4375,60.75,1025.9375,-12.0,1009.0,44.0,6359.111111111111,9.0,1078.0,1070.0,28.21347195933177,92.0,1.3820511834829603,0.9386000353526428,318.8778035850371,1.0,-1.0,9.0,8.0,42.25,6.4375,-30.0,0.0,9.0,1077.75,1069.0,29.333214961882376,94.0,1.3598717191154537,0.8586929026420678,492.6289413327694,1.0,-3.0,9.0,8.0,67.0,861.0,-7.5,879.75,9.0,1077.75,1069.0,28.573370469722327,92.0,1.3397139279546213,0.8159959874818368,1013.346716618803,1.0,0.0,9.0,8.0,118.0,277.0,9.0,1078.0,1071.0,29.154759474226505,96.0,1.3510053248402814,0.9175197231833908,1218.8505384241669,1.0,4.0,9.0,8.0,81.33333333333333,70.22222222222223,9.0,1077.75,1069.0,29.333214961882376,94.0,1.3598717191154537,0.8586929026420678,1046.02597378452,0.8888888888888888,-51.0,9.0,8.0,169.25,9574.9375,86.5,13066.75,85.0,3981.0
44,2.0,11.0,875.4,874.0,13.595587519485871,42.0,0.1391670638280997,-1.116575201390713,427.7551290347825,1.0,-1.0,11.0,10.0,378.6,17.639999999999993,118.6,72.03999999999999,24.8,9.76,6.363636363636363,6474.7768595041325,11.0,875.2,875.0,13.687950905814938,44.0,0.1855184957163306,-1.0960844957232196,319.06161500459854,1.0,2.0,11.0,10.0,78.2,849.1600000000001,22.2,1436.36,135.27272727272728,283.8347107438016,11.0,875.6,875.0,13.792751719653335,44.0,0.2181275135420232,-1.0520293608144764,127.05880531200437,1.0,-4.0,11.0,10.0,292.6,12597.64,61.2,3232.96,14.6,3506.44,36.54545454545455,8291.702479338843,11.0,875.4,875.0,13.741906709041508,42.0,0.1282948827577092,-1.1883675049548308,70.91966726445531,1.0,-12.0,8.0,10.0,171.6,3959.04,99.0,6985.0,11.0,875.4,874.0,13.298120167903432,42.0,0.2242384447926589,-1.0273879969042068,295.8032147370341,1.0,1.0,11.0,10.0,368.6,13.639999999999995,109.6,3.04,15.8,309.9599999999999,64.54545454545455,3911.338842975209,11.0,875.2,874.0,13.481839637082173,40.0,0.2885728552241071,-1.1887878769093476,148.91655155359487,1.0,-4.0,11.0,10.0,466.4,3152.64,94.2,3357.9600000000005,45.2,3660.959999999999,183.8181818181818,243.2396694214876,11.0,875.4,874.0,13.828955130450025,44.0,0.2309750414616299,-1.0235762498676049,189.67997966386565,1.0,-1.0,11.0,10.0,394.4,1147.0400000000002,33.0,17.0,-20.8,0.96,22.727272727272727,2613.2892561983467,11.0,875.4,875.0,13.146862743635836,38.0,0.1591899845906441,-1.2872847314726577,316.193123146642,1.0,2.0,11.0,10.0,44.6,16.04,-48.8,51.36,11.0,875.4,874.0,13.358143583597236,44.0,0.1982726206878228,-0.9677448143191812,535.9510833284423,1.0,0.0,11.0,10.0,49.2,20.96,-49.2,29.76,11.0,875.4,874.0,13.654303350958628,44.0,0.144167341397605,-1.0651834361100774,746.0674467279091,1.0,-1.0,11.0,10.0,119.63636363636364,44.231404958677686,11.0,875.4,875.0,13.358143583597236,42.0,0.0532835013548665,-1.1674581786074842,733.9235506667294,1.0,9.0,11.0,10.0,129.63636363636363,16.59504132231405,11.0,875.4,874.0,13.358143583597236,44.0,0.1982726206878228,-0.9677448143191812,547.287093623877,1.0,-1.0,11.0,10.0,119.2,7227.360000000001,-3.0,3709.0,129.45454545454547,310.61157024793386
45,0.0,13.0,757.5,720.0,191.748315942192,694.0,0.8675958821415894,0.1881494392773941,165.42609089851982,1.0,-6.0,13.0,12.0,331.5,2941.4166666666665,116.72727272727272,4588.561983471075,83.0,5355.666666666667,159.07692307692307,2007.763313609468,13.0,757.5,721.0,191.5291535685016,696.0,0.88219483043051,0.2393555395659015,952.8660695035773,1.0,15.0,13.0,12.0,193.45454545454547,3844.429752066115,118.33333333333331,2884.555555555556,129.53846153846155,1694.8639053254442,13.0,757.5,721.0,191.31845180222425,694.0,0.8711821557423877,0.2111453883824028,818.2012863182155,1.0,-15.0,13.0,12.0,318.6666666666667,1534.2222222222226,232.3636363636364,1012.9586776859504,149.33333333333334,1595.5555555555557,118.76923076923076,1801.5621301775143,13.0,757.3333333333334,724.0,190.58389811897075,694.0,0.8736928308362214,0.2566877340565221,78.23258750405873,1.0,-34.0,13.0,12.0,102.66666666666669,4642.88888888889,36.0,3464.0,13.0,757.3333333333334,721.0,191.355399424445,694.0,0.870419751345487,0.2102416018411554,81.14624083217672,1.0,72.0,13.0,12.0,278.5,6492.083333333333,114.36363636363636,4067.504132231405,60.66666666666666,4840.222222222222,76.76923076923077,9980.63905325444,13.0,757.5,720.0,191.16681197320835,692.0,0.8769380960914195,0.2155789958565379,884.5325460970495,1.0,-17.0,13.0,12.0,332.0,1592.6666666666667,221.45454545454547,2489.5206611570247,133.5,2247.4166666666665,132.15384615384616,1952.2840236686388,13.0,757.3333333333334,721.0,191.02239542932017,692.0,0.8650929572893225,0.1901248994585613,76.2163706240081,0.9230769230769232,-68.0,13.0,12.0,392.0,8122.4,172.66666666666666,5528.88888888889,84.8,6358.56,135.84615384615384,1249.514792899408,13.0,757.3333333333334,721.0,190.5279215466565,688.0,0.8572356889560947,0.174790435940098,181.1086949750828,1.0,38.0,13.0,12.0,112.36363636363636,5004.95867768595,45.16666666666666,6040.972222222222,13.0,757.3333333333334,722.0,190.95607406474983,692.0,0.8633235961950371,0.1965855367659377,317.5042829069274,1.0,-36.0,13.0,12.0,141.63636363636363,3995.5041322314046,57.16666666666666,3774.972222222222,13.0,757.3333333333334,722.0,190.95607406474983,692.0,0.8633235961950371,0.1965855367659377,319.2751182135989,1.0,-57.0,13.0,12.0,140.76923076923077,656.9467455621302,13.0,757.5,721.0,191.1511182284844,694.0,0.873760698468242,0.2214889159501263,751.7270115612014,1.0,11.0,13.0,11.0,140.0,778.4615384615385,13.0,757.5,720.0,191.16681197320835,692.0,0.8769380960914195,0.2155789958565379,1047.5098558298655,1.0,-11.0,13.0,10.0,175.5,5028.75,97.75,2627.4375,140.0,1488.0
46,0.0,17.0,573.0,589.0,147.58895622640603,412.0,-0.0307716695525974,-1.6356898939673998,873.5960788919865,0.9411764705882352,3.0,15.0,12.0,340.1666666666667,6729.638888888888,62.0,1992.6666666666667,-0.1666666666666666,1241.638888888889,89.86666666666666,5750.115555555555,17.0,573.125,589.0,147.68373090831636,412.0,-0.0326974705254402,-1.6343918268464428,573.5042379471486,0.7647058823529411,7.0,17.0,16.0,87.16666666666667,1107.638888888889,-49.833333333333336,382.97222222222223,21.529411764705884,3246.837370242215,17.0,572.875,585.0,143.56874442231498,408.0,-0.0358141774551545,-1.594737542748031,182.829129807978,0.5294117647058824,147.0,17.0,16.0,369.25,6813.9375,76.0,2299.0,-13.75,2030.4375,53.76470588235294,4735.9446366782,16.0,611.2,602.0,185.2059034336289,672.0,0.760868170407839,0.1961983413687176,94.68173071081384,0.5,-178.0,15.0,15.0,216.0,2604.0,81.0,2132.0,17.0,573.0,589.0,147.58895622640603,412.0,-0.0307716695525974,-1.6356898939673998,845.5528444147769,0.9411764705882352,8.0,16.0,16.0,296.2857142857143,1806.2040816326528,156.13333333333333,2106.915555555556,81.06666666666666,1488.9955555555557,63.375,9478.859375,17.0,573.125,589.0,146.79742632280718,410.0,-0.0318237188209692,-1.6363914036632743,325.3427488673228,0.7058823529411765,131.0,17.0,16.0,312.3636363636364,10417.322314049588,59.63636363636363,923.504132231405,-36.54545454545455,758.6115702479339,40.70588235294117,4454.089965397924,17.0,573.125,558.0,136.37076070404535,420.0,0.0328538897528508,-1.3983844199380688,66.77940057617897,0.9411764705882352,-58.0,17.0,16.0,250.8,3948.16,95.73333333333332,3061.262222222222,21.6,1967.5733333333333,3.5294117647058822,2417.6608996539794,17.0,573.125,558.0,144.79980792459637,422.0,0.0095544656208551,-1.5749516497804552,150.14662618915395,0.8823529411764706,34.0,17.0,16.0,90.85714285714286,2930.6938775510207,17.142857142857142,1513.5510204081631,17.0,573.25,589.0,147.66664315274454,412.0,-0.0361598343870786,-1.6378490676403832,670.2348128788357,1.0,9.0,17.0,16.0,85.0,2939.5,7.875,2604.234375,17.0,573.125,589.0,148.18058028972624,414.0,-0.0325876143302241,-1.6369412161248358,934.0274534674212,0.9411764705882352,-14.0,17.0,11.0,102.23529411764706,965.59169550173,17.0,573.0,590.0,148.70272357963051,414.0,-0.0359856142375264,-1.63868346694421,1207.3479696761997,0.8823529411764706,-9.0,13.0,4.0,30.76923076923077,3633.562130177514,17.0,573.0,591.0,148.89257872708097,414.0,-0.0375236354345777,-1.6431503918753565,1266.7985987819343,1.0,16.0,7.0,2.0,94.0,16.0,-68.0,196.0,20.571428571428573,1142.530612244898
47,2.0,10.0,994.2222222222222,996.0,9.064923579720508,34.0,0.6221442598321615,0.298286392843949,225.0965678649516,1.0,0.0,10.0,9.0,423.55555555555554,1343.8024691358028,139.77777777777777,91.06172839506172,55.55555555555556,23.80246913580247,202.8,442.56000000000006,10.0,994.2222222222222,996.0,9.064923579720508,34.0,0.6221442598321615,0.298286392843949,351.91545214342983,1.0,0.0,10.0,9.0,82.22222222222223,2283.061728395062,-16.666666666666668,2026.6666666666663,143.2,1884.1600000000003,10.0,994.2222222222222,994.0,9.21083634491676,36.0,0.4406186109994481,0.4837345046152523,126.9710128020388,1.0,-2.0,10.0,9.0,446.22222222222223,465.283950617284,98.44444444444444,257.5802469135803,30.88888888888889,152.09876543209876,199.8,917.16,10.0,994.0,994.0,9.38083151964686,36.0,0.4457833160162764,0.3209366391184569,84.22519956048924,1.0,4.0,8.0,9.0,203.3333333333333,9161.777777777776,112.22222222222224,11354.172839506173,10.0,994.4444444444443,996.0,9.96784955200258,38.0,0.5410813281235153,0.3354633629633698,49.221958752054704,1.0,0.0,10.0,9.0,253.11111111111111,587.6543209876543,115.55555555555556,674.4691358024692,64.88888888888889,392.9876543209877,114.2,1330.7599999999998,10.0,994.2222222222222,996.0,9.064923579720508,34.0,0.6221442598321615,0.298286392843949,239.32858146802488,1.0,0.0,10.0,9.0,489.77777777777777,2192.395061728395,82.88888888888889,1312.9876543209875,5.777777777777778,1206.617283950617,175.4,1688.0399999999995,10.0,994.0,994.0,9.043106644167024,34.0,0.6995479767566588,0.3952032136105865,154.07679445351474,1.0,-72.0,10.0,9.0,429.1111111111111,6563.654320987655,157.77777777777777,14889.283950617284,86.0,14240.0,104.6,6159.240000000001,10.0,994.2222222222222,996.0,9.064923579720508,34.0,0.6221442598321615,0.298286392843949,327.9442654474193,1.0,8.0,10.0,7.0,141.71428571428572,7613.061224489796,74.28571428571429,10802.77551020408,10.0,994.2222222222222,996.0,9.064923579720508,34.0,0.6221442598321615,0.298286392843949,441.4277355692124,1.0,-2.0,10.0,9.0,82.44444444444444,1107.358024691358,-18.88888888888889,1541.4320987654323,10.0,994.2222222222222,996.0,9.064923579720508,34.0,0.6221442598321615,0.298286392843949,596.1668815293575,1.0,2.0,10.0,9.0,-24.8,0.96,10.0,994.2222222222222,994.0,9.495938052987333,36.0,0.3792735089508292,0.1382423050761332,771.8319556183518,1.0,-4.0,10.0,9.0,82.2,11750.76,10.0,994.2222222222222,994.0,9.495938052987333,36.0,0.3792735089508292,0.1382423050761332,633.038467365351,1.0,4.0,10.0,9.0,135.5,8629.75,21.25,4129.9375,142.4,9715.04
