,0,1,2,3
0,0.24671842605155303,0.28551653147963335,0.24494252031088815,0.22282252215792553
1,0.27591644091312084,0.2227670888677687,0.23217190276671734,0.2691445674523932
2,0.24958380963190333,0.22459757429554866,0.24978141890645997,0.276037197166088
3,0.24958380963190333,0.22459757429554866,0.24978141890645997,0.276037197166088
4,0.22227151140003337,0.28670065013448653,0.2687563270654467,0.22227151140003337
5,0.24958380963190333,0.22459757429554866,0.24978141890645997,0.276037197166088
6,0.2496954367227103,0.2478443453489495,0.27470048157743304,0.22775973635090707
7,0.24958380963190333,0.22459757429554866,0.24978141890645997,0.276037197166088
8,0.22227151140003337,0.28670065013448653,0.2687563270654467,0.22227151140003337
9,0.22227151140003337,0.28670065013448653,0.2687563270654467,0.22227151140003337
10,0.2709145832056522,0.22302674288763125,0.2403985343898644,0.26566013951685236
11,0.24671842605155303,0.28551653147963335,0.24494252031088815,0.22282252215792553
12,0.2764223240926711,0.2461650096075887,0.24969487650034067,0.22771778979939955
13,0.24973808021879731,0.2247364006066489,0.25959378019870055,0.26593173897585326
14,0.2686105331336013,0.22279506403807978,0.2329553084817064,0.27563909434661255
15,0.25424383883132545,0.27297867081129507,0.2496458158548476,0.22313167450253185
16,0.24958380963190333,0.22459757429554866,0.24978141890645997,0.276037197166088
17,0.22227151140003337,0.28670065013448653,0.2687563270654467,0.22227151140003337
18,0.24958380963190333,0.22459757429554866,0.24978141890645997,0.276037197166088
19,0.24194968366543873,0.28549982092983456,0.24974101447714078,0.22280948092758585
20,0.24976552497064355,0.24357272518764644,0.2747775886151622,0.23188416122654784
21,0.24671842605155303,0.28551653147963335,0.24494252031088815,0.22282252215792553
22,0.24958380963190333,0.22459757429554866,0.24978141890645997,0.276037197166088
23,0.2756358381517024,0.22254053817697775,0.2264994253397732,0.27532419833154664
24,0.24958380963190333,0.22459757429554866,0.24978141890645997,0.276037197166088
25,0.22227151140003337,0.28670065013448653,0.2687563270654467,0.22227151140003337
26,0.22227151140003337,0.28670065013448653,0.2687563270654467,0.22227151140003337
27,0.2496954367227103,0.2478443453489495,0.27470048157743304,0.22775973635090707
28,0.24976552497064355,0.24357272518764644,0.2747775886151622,0.23188416122654784
29,0.24671842605155303,0.28551653147963335,0.24494252031088815,0.22282252215792553
30,0.2496954367227103,0.2478443453489495,0.27470048157743304,0.22775973635090707
31,0.22227151140003337,0.28670065013448653,0.2687563270654467,0.22227151140003337
32,0.23133784794858225,0.26683651310152184,0.27435355032843534,0.22747208862146057
33,0.24976552497064355,0.24357272518764644,0.2747775886151622,0.23188416122654784
34,0.2496954367227103,0.2478443453489495,0.27470048157743304,0.22775973635090707
35,0.22227151140003337,0.28670065013448653,0.2687563270654467,0.22227151140003337
36,0.22227151140003337,0.28670065013448653,0.2687563270654467,0.22227151140003337
37,0.22227151140003337,0.28670065013448653,0.2687563270654467,0.22227151140003337
38,0.2760473864467348,0.2228728105682476,0.23560302121672097,0.26547678176829653
39,0.24958380963190333,0.22459757429554866,0.24978141890645997,0.276037197166088
40,0.22227151140003337,0.28670065013448653,0.2687563270654467,0.22227151140003337
41,0.24368050777102804,0.2855120587271474,0.24798840196486135,0.2228190315369631
42,0.24976552497064355,0.24357272518764644,0.2747775886151622,0.23188416122654784
43,0.22227151140003337,0.28670065013448653,0.2687563270654467,0.22227151140003337
44,0.2496954367227103,0.2478443453489495,0.27470048157743304,0.22775973635090707
45,0.2764223240926711,0.2461650096075887,0.24969487650034067,0.22771778979939955
46,0.2644829580810333,0.22290787370111398,0.23683050725432914,0.2757786609635237
47,0.22681571995332445,0.2767465803792093,0.2738842887563536,0.22255341091111264
48,0.22227151140003337,0.28670065013448653,0.2687563270654467,0.22227151140003337
49,0.22840169320237919,0.279448625928819,0.2695436694837609,0.22260601138504085
50,0.2381928573629116,0.2854486199762488,0.25358899992956463,0.22276952273127495
51,0.24958380963190333,0.22459757429554866,0.24978141890645997,0.276037197166088
52,0.24958380963190333,0.22459757429554866,0.24978141890645997,0.276037197166088
53,0.22227151140003337,0.28670065013448653,0.2687563270654467,0.22227151140003337
54,0.2496954367227103,0.2478443453489495,0.27470048157743304,0.22775973635090707
55,0.24958380963190333,0.22459757429554866,0.24978141890645997,0.276037197166088
56,0.22227151140003337,0.28670065013448653,0.2687563270654467,0.22227151140003337
57,0.25890694956898636,0.24206462926270614,0.2670505992514709,0.23197782191683675
58,0.27649198822892346,0.24191539794815328,0.2497578047676401,0.23183480905528323
59,0.2764223240926711,0.2461650096075887,0.24969487650034067,0.22771778979939955
60,0.2668194301038902,0.22307990072469178,0.24240929217412852,0.2676913769972895
61,0.22227151140003337,0.28670065013448653,0.2687563270654467,0.22227151140003337
62,0.24958380963190333,0.22459757429554866,0.24978141890645997,0.276037197166088
63,0.22680395398311315,0.2793681010290941,0.27128607894139994,0.22254186604639276
64,0.27649198822892346,0.24191539794815328,0.2497578047676401,0.23183480905528323
65,0.22227151140003337,0.28670065013448653,0.2687563270654467,0.22227151140003337
66,0.24974637905356042,0.22474386863175846,0.2616096963255617,0.2639000559891193
67,0.22227151140003337,0.28670065013448653,0.2687563270654467,0.22227151140003337
68,0.22227151140003337,0.28670065013448653,0.2687563270654467,0.22227151140003337
69,0.24671842605155303,0.28551653147963335,0.24494252031088815,0.22282252215792553
70,0.22227151140003337,0.28670065013448653,0.2687563270654467,0.22227151140003337
71,0.22227151140003337,0.28670065013448653,0.2687563270654467,0.22227151140003337
72,0.22367094972152926,0.2851186955091336,0.2688562244798326,0.22235413028950457
73,0.24958380963190333,0.22459757429554866,0.24978141890645997,0.276037197166088
74,0.24958380963190333,0.22459757429554866,0.24978141890645997,0.276037197166088
75,0.24671842605155303,0.28551653147963335,0.24494252031088815,0.22282252215792553
76,0.22227151140003337,0.28670065013448653,0.2687563270654467,0.22227151140003337
77,0.2756358381517024,0.22254053817697775,0.2264994253397732,0.27532419833154664
78,0.2496954367227103,0.2478443453489495,0.27470048157743304,0.22775973635090707
79,0.24973808021879731,0.2247364006066489,0.25959378019870055,0.26593173897585326
80,0.24958380963190333,0.22459757429554866,0.24978141890645997,0.276037197166088
81,0.2764223240926711,0.2461650096075887,0.24969487650034067,0.22771778979939955
82,0.2764223240926711,0.2461650096075887,0.24969487650034067,0.22771778979939955
83,0.22227151140003337,0.28670065013448653,0.2687563270654467,0.22227151140003337
84,0.24958380963190333,0.22459757429554866,0.24978141890645997,0.276037197166088
85,0.22227151140003337,0.28670065013448653,0.2687563270654467,0.22227151140003337
86,0.24958380963190333,0.22459757429554866,0.24978141890645997,0.276037197166088
87,0.22227151140003337,0.28670065013448653,0.2687563270654467,0.22227151140003337
88,0.22680395398311315,0.2793681010290941,0.27128607894139994,0.22254186604639276
89,0.24671842605155303,0.28551653147963335,0.24494252031088815,0.22282252215792553
90,0.22227151140003337,0.28670065013448653,0.2687563270654467,0.22227151140003337
91,0.27055697202169154,0.22273234434830128,0.2311491852506253,0.27556149837938193
92,0.25662894851913526,0.2655761118425382,0.24989481190383026,0.22790012773449628
93,0.27577657016555096,0.22265416120332512,0.2291405938810971,0.2724286747500267
94,0.24958380963190333,0.22459757429554866,0.24978141890645997,0.276037197166088
95,0.22227151140003337,0.28670065013448653,0.2687563270654467,0.22227151140003337
96,0.22227151140003337,0.28670065013448653,0.2687563270654467,0.22227151140003337
97,0.27649198822892346,0.24191539794815328,0.2497578047676401,0.23183480905528323
98,0.22227151140003337,0.28670065013448653,0.2687563270654467,0.22227151140003337
99,0.2496954367227103,0.2478443453489495,0.27470048157743304,0.22775973635090707
100,0.2764120288420475,0.2287510994160474,0.24156772107180732,0.2532691506700977
101,0.2764223240926711,0.2461650096075887,0.24969487650034067,0.22771778979939955
102,0.2496954367227103,0.2478443453489495,0.27470048157743304,0.22775973635090707
103,0.251267088896921,0.2245953318658973,0.24810313808481183,0.2760344411523699
104,0.24976552497064355,0.24357272518764644,0.2747775886151622,0.23188416122654784
105,0.22227151140003337,0.28670065013448653,0.2687563270654467,0.22227151140003337
106,0.2516725393714356,0.27812935170325814,0.24717265347449,0.22302545545081615
107,0.22227151140003337,0.28670065013448653,0.2687563270654467,0.22227151140003337
108,0.2351215148741415,0.2628034726994304,0.2744898855280228,0.22758512689840524
109,0.22227151140003337,0.28670065013448653,0.2687563270654467,0.22227151140003337
110,0.27240127288181515,0.22266736720773445,0.22945025038643385,0.2754811095240166
111,0.2764223240926711,0.2461650096075887,0.24969487650034067,0.22771778979939955
112,0.24972282926461628,0.2247226764499426,0.2576696548611619,0.2678848394242792
113,0.22227151140003337,0.28670065013448653,0.2687563270654467,0.22227151140003337
114,0.22227151140003337,0.28670065013448653,0.2687563270654467,0.22227151140003337
115,0.2351215148741415,0.2628034726994304,0.2744898855280228,0.22758512689840524
116,0.2756358381517024,0.22254053817697775,0.2264994253397732,0.27532419833154664
117,0.23707778393390375,0.2607430610461055,0.274546821419828,0.2276323336001627
118,0.2756358381517024,0.22254053817697775,0.2264994253397732,0.27532419833154664
119,0.2496954367227103,0.2478443453489495,0.27470048157743304,0.22775973635090707
120,0.24991780735486605,0.23052533148517196,0.26600601904899385,0.2535508421109681
121,0.22227151140003337,0.28670065013448653,0.2687563270654467,0.22227151140003337
122,0.2496954367227103,0.2478443453489495,0.27470048157743304,0.22775973635090707
123,0.22912941785406846,0.2742043441954423,0.2740103731474893,0.22265586480299995
124,0.24958380963190333,0.22459757429554866,0.24978141890645997,0.276037197166088
125,0.2756358381517024,0.22254053817697775,0.2264994253397732,0.27532419833154664
126,0.24958380963190333,0.22459757429554866,0.24978141890645997,0.276037197166088
127,0.27649198822892346,0.24191539794815328,0.2497578047676401,0.23183480905528323
128,0.24194968366543873,0.28549982092983456,0.24974101447714078,0.22280948092758585
129,0.2712425395935507,0.2288838560987548,0.24645746779857391,0.2534161365091206
130,0.22227151140003337,0.28670065013448653,0.2687563270654467,0.22227151140003337
131,0.24976552497064355,0.24357272518764644,0.2747775886151622,0.23188416122654784
132,0.22227151140003337,0.28670065013448653,0.2687563270654467,0.22227151140003337
133,0.27649198822892346,0.24191539794815328,0.2497578047676401,0.23183480905528323
134,0.22227151140003337,0.28670065013448653,0.2687563270654467,0.22227151140003337
135,0.22227151140003337,0.28670065013448653,0.2687563270654467,0.22227151140003337
136,0.2764223240926711,0.2461650096075887,0.24969487650034067,0.22771778979939955
137,0.2496954367227103,0.2478443453489495,0.27470048157743304,0.22775973635090707
138,0.24958380963190333,0.22459757429554866,0.24978141890645997,0.276037197166088
139,0.24976552497064355,0.24357272518764644,0.2747775886151622,0.23188416122654784
140,0.2756358381517024,0.22254053817697775,0.2264994253397732,0.27532419833154664
141,0.22227151140003337,0.28670065013448653,0.2687563270654467,0.22227151140003337
142,0.22681571995332445,0.2767465803792093,0.2738842887563536,0.22255341091111264
143,0.22227151140003337,0.28670065013448653,0.2687563270654467,0.22227151140003337
144,0.24958380963190333,0.22459757429554866,0.24978141890645997,0.276037197166088
145,0.22227151140003337,0.28670065013448653,0.2687563270654467,0.22227151140003337
146,0.24973808021879731,0.2247364006066489,0.25959378019870055,0.26593173897585326
147,0.22227151140003337,0.28670065013448653,0.2687563270654467,0.22227151140003337
148,0.22912941785406846,0.2742043441954423,0.2740103731474893,0.22265586480299995
149,0.24671842605155303,0.28551653147963335,0.24494252031088815,0.22282252215792553
150,0.2765487086363895,0.23569615097861057,0.24692313077228814,0.24083200961271184
151,0.23124781475814604,0.2692362700512223,0.2742467760774314,0.2252691391132003
152,0.2496954367227103,0.2478443453489495,0.27470048157743304,0.22775973635090707
153,0.22227151140003337,0.28670065013448653,0.2687563270654467,0.22227151140003337
154,0.2496954367227103,0.2478443453489495,0.27470048157743304,0.22775973635090707
155,0.24976552497064355,0.24357272518764644,0.2747775886151622,0.23188416122654784
156,0.24958380963190333,0.22459757429554866,0.24978141890645997,0.276037197166088
157,0.24958380963190333,0.22459757429554866,0.24978141890645997,0.276037197166088
158,0.22227151140003337,0.28670065013448653,0.2687563270654467,0.22227151140003337
159,0.22680395398311315,0.2793681010290941,0.27128607894139994,0.22254186604639276
160,0.22227151140003337,0.28670065013448653,0.2687563270654467,0.22227151140003337
161,0.22227151140003337,0.28670065013448653,0.2687563270654467,0.22227151140003337
162,0.22227151140003337,0.28670065013448653,0.2687563270654467,0.22227151140003337
163,0.24958380963190333,0.22459757429554866,0.24978141890645997,0.276037197166088
164,0.22227151140003337,0.28670065013448653,0.2687563270654467,0.22227151140003337
165,0.24958380963190333,0.22459757429554866,0.24978141890645997,0.276037197166088
166,0.2764223240926711,0.2461650096075887,0.24969487650034067,0.22771778979939955
167,0.2765487086363895,0.23569615097861057,0.24692313077228814,0.24083200961271184
168,0.2756358381517024,0.22254053817697775,0.2264994253397732,0.27532419833154664
169,0.24958380963190333,0.22459757429554866,0.24978141890645997,0.276037197166088
170,0.2756358381517024,0.22254053817697775,0.2264994253397732,0.27532419833154664
171,0.22227151140003337,0.28670065013448653,0.2687563270654467,0.22227151140003337
172,0.24976552497064355,0.24357272518764644,0.2747775886151622,0.23188416122654784
173,0.2764223240926711,0.2461650096075887,0.24969487650034067,0.22771778979939955
174,0.2292504711286587,0.2714005244888186,0.2741551378540549,0.22519386652846785
175,0.2496954367227103,0.2478443453489495,0.27470048157743304,0.22775973635090707
176,0.22227151140003337,0.28670065013448653,0.2687563270654467,0.22227151140003337
177,0.22227151140003337,0.28670065013448653,0.2687563270654467,0.22227151140003337
178,0.22227151140003337,0.28670065013448653,0.2687563270654467,0.22227151140003337
179,0.2756358381517024,0.22254053817697775,0.2264994253397732,0.27532419833154664
180,0.2496954367227103,0.2478443453489495,0.27470048157743304,0.22775973635090707
181,0.24958380963190333,0.22459757429554866,0.24978141890645997,0.276037197166088
182,0.2496954367227103,0.2478443453489495,0.27470048157743304,0.22775973635090707
183,0.24671842605155303,0.28551653147963335,0.24494252031088815,0.22282252215792553
184,0.24958380963190333,0.22459757429554866,0.24978141890645997,0.276037197166088
185,0.24292283574736154,0.25468507578998073,0.27466323445544255,0.22772885400721524
186,0.27649198822892346,0.24191539794815328,0.2497578047676401,0.23183480905528323
187,0.24958380963190333,0.22459757429554866,0.24978141890645997,0.276037197166088
188,0.24012407192037208,0.28547918522123267,0.25160336642960446,0.22279337642879077
189,0.27055697202169154,0.22273234434830128,0.2311491852506253,0.27556149837938193
190,0.22227151140003337,0.28670065013448653,0.2687563270654467,0.22227151140003337
191,0.2644829580810333,0.22290787370111398,0.23683050725432914,0.2757786609635237
192,0.24958380963190333,0.22459757429554866,0.24978141890645997,0.276037197166088
193,0.22227151140003337,0.28670065013448653,0.2687563270654467,0.22227151140003337
194,0.22227151140003337,0.28670065013448653,0.2687563270654467,0.22227151140003337
195,0.24958380963190333,0.22459757429554866,0.24978141890645997,0.276037197166088
196,0.2496954367227103,0.2478443453489495,0.27470048157743304,0.22775973635090707
197,0.2764223240926711,0.2461650096075887,0.24969487650034067,0.22771778979939955
198,0.24964839435044703,0.22465569333437121,0.25263047797959803,0.2730654343355838
199,0.22227151140003337,0.28670065013448653,0.2687563270654467,0.22227151140003337
200,0.22227151140003337,0.28670065013448653,0.2687563270654467,0.22227151140003337
201,0.23707778393390375,0.2607430610461055,0.274546821419828,0.2276323336001627
202,0.27649198822892346,0.24191539794815328,0.2497578047676401,0.23183480905528323
203,0.2496954367227103,0.2478443453489495,0.27470048157743304,0.22775973635090707
204,0.23124781475814604,0.2692362700512223,0.2742467760774314,0.2252691391132003
205,0.2764223240926711,0.2461650096075887,0.24969487650034067,0.22771778979939955
206,0.22227151140003337,0.28670065013448653,0.2687563270654467,0.22227151140003337
207,0.22227151140003337,0.28670065013448653,0.2687563270654467,0.22227151140003337
208,0.24671842605155303,0.28551653147963335,0.24494252031088815,0.22282252215792553
209,0.24958380963190333,0.22459757429554866,0.24978141890645997,0.276037197166088
210,0.2756358381517024,0.22254053817697775,0.2264994253397732,0.27532419833154664
211,0.24958380963190333,0.22459757429554866,0.24978141890645997,0.276037197166088
212,0.22227151140003337,0.28670065013448653,0.2687563270654467,0.22227151140003337
213,0.2496954367227103,0.2478443453489495,0.27470048157743304,0.22775973635090707
214,0.27240127288181515,0.22266736720773445,0.22945025038643385,0.2754811095240166
215,0.2756358381517024,0.22254053817697775,0.2264994253397732,0.27532419833154664
216,0.22227151140003337,0.28670065013448653,0.2687563270654467,0.22227151140003337
217,0.25142131247746086,0.2478831256021084,0.2729001879590604,0.22779537396137045
218,0.2351215148741415,0.2628034726994304,0.2744898855280228,0.22758512689840524
219,0.2496954367227103,0.2478443453489495,0.27470048157743304,0.22775973635090707
220,0.255234479839383,0.24367337866608385,0.2691121569470284,0.2319799845475047
221,0.24958380963190333,0.22459757429554866,0.24978141890645997,0.276037197166088
222,0.2496954367227103,0.2478443453489495,0.27470048157743304,0.22775973635090707
223,0.24958380963190333,0.22459757429554866,0.24978141890645997,0.276037197166088
224,0.27277843642878913,0.2229756697832803,0.23864659041947803,0.26559930336845256
225,0.2756358381517024,0.22254053817697775,0.2264994253397732,0.27532419833154664
226,0.2496954367227103,0.2478443453489495,0.27470048157743304,0.22775973635090707
227,0.2496954367227103,0.2478443453489495,0.27470048157743304,0.22775973635090707
228,0.24958380963190333,0.22459757429554866,0.24978141890645997,0.276037197166088
229,0.22227151140003337,0.28670065013448653,0.2687563270654467,0.22227151140003337
230,0.24958380963190333,0.22459757429554866,0.24978141890645997,0.276037197166088
231,0.24958380963190333,0.22459757429554866,0.24978141890645997,0.276037197166088
232,0.2756358381517024,0.22254053817697775,0.2264994253397732,0.27532419833154664
233,0.22227151140003337,0.28670065013448653,0.2687563270654467,0.22227151140003337
234,0.2306621982024805,0.2852415355675873,0.2614883561030077,0.2226079101269245
235,0.255234479839383,0.24367337866608385,0.2691121569470284,0.2319799845475047
236,0.2306621982024805,0.2852415355675873,0.2614883561030077,0.2226079101269245
237,0.22227151140003337,0.28670065013448653,0.2687563270654467,0.22227151140003337
238,0.22227151140003337,0.28670065013448653,0.2687563270654467,0.22227151140003337
239,0.2756358381517024,0.22254053817697775,0.2264994253397732,0.27532419833154664
240,0.22227151140003337,0.28670065013448653,0.2687563270654467,0.22227151140003337
241,0.24958380963190333,0.22459757429554866,0.24978141890645997,0.276037197166088
242,0.2756358381517024,0.22254053817697775,0.2264994253397732,0.27532419833154664
243,0.24958380963190333,0.22459757429554866,0.24978141890645997,0.276037197166088
244,0.2306621982024805,0.2852415355675873,0.2614883561030077,0.2226079101269245
245,0.24958380963190333,0.22459757429554866,0.24978141890645997,0.276037197166088
246,0.24976552497064355,0.24357272518764644,0.2747775886151622,0.23188416122654784
247,0.24958380963190333,0.22459757429554866,0.24978141890645997,0.276037197166088
248,0.24972282926461628,0.2247226764499426,0.2576696548611619,0.2678848394242792
249,0.22227151140003337,0.28670065013448653,0.2687563270654467,0.22227151140003337
250,0.27649198822892346,0.24191539794815328,0.2497578047676401,0.23183480905528323
251,0.24964839435044703,0.22465569333437121,0.25263047797959803,0.2730654343355838
252,0.2764223240926711,0.2461650096075887,0.24969487650034067,0.22771778979939955
253,0.24972282926461628,0.2247226764499426,0.2576696548611619,0.2678848394242792
254,0.22227151140003337,0.28670065013448653,0.2687563270654467,0.22227151140003337
255,0.2496954367227103,0.2478443453489495,0.27470048157743304,0.22775973635090707
256,0.2496954367227103,0.2478443453489495,0.27470048157743304,0.22775973635090707
257,0.24958380963190333,0.22459757429554866,0.24978141890645997,0.276037197166088
258,0.2756358381517024,0.22254053817697775,0.2264994253397732,0.27532419833154664
259,0.22227151140003337,0.28670065013448653,0.2687563270654467,0.22227151140003337
260,0.23133784794858225,0.26683651310152184,0.27435355032843534,0.22747208862146057
261,0.2306621982024805,0.2852415355675873,0.2614883561030077,0.2226079101269245
262,0.22227151140003337,0.28670065013448653,0.2687563270654467,0.22227151140003337
263,0.2756358381517024,0.22254053817697775,0.2264994253397732,0.27532419833154664
264,0.251267088896921,0.2245953318658973,0.24810313808481183,0.2760344411523699
265,0.22227151140003337,0.28670065013448653,0.2687563270654467,0.22227151140003337
266,0.22227151140003337,0.28670065013448653,0.2687563270654467,0.22227151140003337
267,0.24958380963190333,0.22459757429554866,0.24978141890645997,0.276037197166088
268,0.2496954367227103,0.2478443453489495,0.27470048157743304,0.22775973635090707
269,0.22227151140003337,0.28670065013448653,0.2687563270654467,0.22227151140003337
270,0.2353326953614133,0.27790728234081064,0.2639126391014638,0.22284738319631214
271,0.2496954367227103,0.2478443453489495,0.27470048157743304,0.22775973635090707
272,0.24671842605155303,0.28551653147963335,0.24494252031088815,0.22282252215792553
273,0.24671842605155303,0.28551653147963335,0.24494252031088815,0.22282252215792553
274,0.22227151140003337,0.28670065013448653,0.2687563270654467,0.22227151140003337
275,0.2292504711286587,0.2714005244888186,0.2741551378540549,0.22519386652846785
276,0.24671842605155303,0.28551653147963335,0.24494252031088815,0.22282252215792553
277,0.24958380963190333,0.22459757429554866,0.24978141890645997,0.276037197166088
278,0.24671842605155303,0.28551653147963335,0.24494252031088815,0.22282252215792553
279,0.24292283574736154,0.25468507578998073,0.27466323445544255,0.22772885400721524
280,0.24976552497064355,0.24357272518764644,0.2747775886151622,0.23188416122654784
281,0.24989926473259494,0.23738924308673573,0.27174866328989533,0.24096282889077394
282,0.2764223240926711,0.2461650096075887,0.24969487650034067,0.22771778979939955
283,0.2756358381517024,0.22254053817697775,0.2264994253397732,0.27532419833154664
284,0.27649198822892346,0.24191539794815328,0.2497578047676401,0.23183480905528323
285,0.27055697202169154,0.22273234434830128,0.2311491852506253,0.27556149837938193
286,0.22227151140003337,0.28670065013448653,0.2687563270654467,0.22227151140003337
287,0.22227151140003337,0.28670065013448653,0.2687563270654467,0.22227151140003337
288,0.2496954367227103,0.2478443453489495,0.27470048157743304,0.22775973635090707
289,0.22227151140003337,0.28670065013448653,0.2687563270654467,0.22227151140003337
290,0.24671842605155303,0.28551653147963335,0.24494252031088815,0.22282252215792553
291,0.22227151140003337,0.28670065013448653,0.2687563270654467,0.22227151140003337
292,0.24958380963190333,0.22459757429554866,0.24978141890645997,0.276037197166088
293,0.24958380963190333,0.22459757429554866,0.24978141890645997,0.276037197166088
294,0.24958380963190333,0.22459757429554866,0.24978141890645997,0.276037197166088
295,0.24671842605155303,0.28551653147963335,0.24494252031088815,0.22282252215792553
296,0.2292504711286587,0.2714005244888186,0.2741551378540549,0.22519386652846785
297,0.22227151140003337,0.28670065013448653,0.2687563270654467,0.22227151140003337
298,0.24958380963190333,0.22459757429554866,0.24978141890645997,0.276037197166088
299,0.22227151140003337,0.28670065013448653,0.2687563270654467,0.22227151140003337
300,0.2756358381517024,0.22254053817697775,0.2264994253397732,0.27532419833154664
301,0.2764223240926711,0.2461650096075887,0.24969487650034067,0.22771778979939955
302,0.23133784794858225,0.26683651310152184,0.27435355032843534,0.22747208862146057
303,0.24958380963190333,0.22459757429554866,0.24978141890645997,0.276037197166088
304,0.24991780735486605,0.23052533148517196,0.26600601904899385,0.2535508421109681
305,0.27649198822892346,0.24191539794815328,0.2497578047676401,0.23183480905528323
306,0.24671842605155303,0.28551653147963335,0.24494252031088815,0.22282252215792553
307,0.27055697202169154,0.22273234434830128,0.2311491852506253,0.27556149837938193
308,0.27649198822892346,0.24191539794815328,0.2497578047676401,0.23183480905528323
309,0.2686105331336013,0.22279506403807978,0.2329553084817064,0.27563909434661255
310,0.2756358381517024,0.22254053817697775,0.2264994253397732,0.27532419833154664
311,0.24958380963190333,0.22459757429554866,0.24978141890645997,0.276037197166088
312,0.2665502291945223,0.22285482973899404,0.2348819053884322,0.2757130356780515
313,0.24958380963190333,0.22459757429554866,0.24978141890645997,0.276037197166088
314,0.2496954367227103,0.2478443453489495,0.27470048157743304,0.22775973635090707
315,0.24671842605155303,0.28551653147963335,0.24494252031088815,0.22282252215792553
316,0.2764223240926711,0.2461650096075887,0.24969487650034067,0.22771778979939955
317,0.24958380963190333,0.22459757429554866,0.24978141890645997,0.276037197166088
318,0.2292504711286587,0.2714005244888186,0.2741551378540549,0.22519386652846785
319,0.27649198822892346,0.24191539794815328,0.2497578047676401,0.23183480905528323
320,0.22227151140003337,0.28670065013448653,0.2687563270654467,0.22227151140003337
321,0.24976552497064355,0.24357272518764644,0.2747775886151622,0.23188416122654784
322,0.24958380963190333,0.22459757429554866,0.24978141890645997,0.276037197166088
323,0.2764223240926711,0.2461650096075887,0.24969487650034067,0.22771778979939955
324,0.22227151140003337,0.28670065013448653,0.2687563270654467,0.22227151140003337
325,0.27649198822892346,0.24191539794815328,0.2497578047676401,0.23183480905528323
326,0.22227151140003337,0.28670065013448653,0.2687563270654467,0.22227151140003337
327,0.24958380963190333,0.22459757429554866,0.24978141890645997,0.276037197166088
328,0.24671842605155303,0.28551653147963335,0.24494252031088815,0.22282252215792553
329,0.24989926473259494,0.23738924308673573,0.27174866328989533,0.24096282889077394
330,0.22227151140003337,0.28670065013448653,0.2687563270654467,0.22227151140003337
331,0.22227151140003337,0.28670065013448653,0.2687563270654467,0.22227151140003337
332,0.22227151140003337,0.28670065013448653,0.2687563270654467,0.22227151140003337
333,0.24823410045200106,0.28389801300795603,0.2449963740274313,0.22287151251261153
334,0.23133784794858225,0.26683651310152184,0.27435355032843534,0.22747208862146057
335,0.24671842605155303,0.28551653147963335,0.24494252031088815,0.22282252215792553
336,0.26282835950317324,0.2593456232130386,0.24991106603656116,0.22791495124722694
337,0.24958380963190333,0.22459757429554866,0.24978141890645997,0.276037197166088
338,0.22227151140003337,0.28670065013448653,0.2687563270654467,0.22227151140003337
339,0.2543734920802728,0.27018242540268733,0.24977312431298168,0.22567095820405808
340,0.24958380963190333,0.22459757429554866,0.24978141890645997,0.276037197166088
341,0.2756358381517024,0.22254053817697775,0.2264994253397732,0.27532419833154664
342,0.24958380963190333,0.22459757429554866,0.24978141890645997,0.276037197166088
343,0.22227151140003337,0.28670065013448653,0.2687563270654467,0.22227151140003337
344,0.22681571995332445,0.2767465803792093,0.2738842887563536,0.22255341091111264
345,0.24958380963190333,0.22459757429554866,0.24978141890645997,0.276037197166088
346,0.2496954367227103,0.2478443453489495,0.27470048157743304,0.22775973635090707
347,0.251267088896921,0.2245953318658973,0.24810313808481183,0.2760344411523699
348,0.22227151140003337,0.28670065013448653,0.2687563270654467,0.22227151140003337
349,0.2496954367227103,0.2478443453489495,0.27470048157743304,0.22775973635090707
350,0.24976552497064355,0.24357272518764644,0.2747775886151622,0.23188416122654784
351,0.22227151140003337,0.28670065013448653,0.2687563270654467,0.22227151140003337
352,0.22227151140003337,0.28670065013448653,0.2687563270654467,0.22227151140003337
353,0.22227151140003337,0.28670065013448653,0.2687563270654467,0.22227151140003337
354,0.22227151140003337,0.28670065013448653,0.2687563270654467,0.22227151140003337
355,0.2496954367227103,0.2478443453489495,0.27470048157743304,0.22775973635090707
356,0.24976552497064355,0.24357272518764644,0.2747775886151622,0.23188416122654784
357,0.2756358381517024,0.22254053817697775,0.2264994253397732,0.27532419833154664
358,0.2496954367227103,0.2478443453489495,0.27470048157743304,0.22775973635090707
359,0.22227151140003337,0.28670065013448653,0.2687563270654467,0.22227151140003337
360,0.2764223240926711,0.2461650096075887,0.24969487650034067,0.22771778979939955
361,0.22227151140003337,0.28670065013448653,0.2687563270654467,0.22227151140003337
362,0.24958380963190333,0.22459757429554866,0.24978141890645997,0.276037197166088
363,0.24671842605155303,0.28551653147963335,0.24494252031088815,0.22282252215792553
364,0.23133784794858225,0.26683651310152184,0.27435355032843534,0.22747208862146057
365,0.24976552497064355,0.24357272518764644,0.2747775886151622,0.23188416122654784
366,0.22227151140003337,0.28670065013448653,0.2687563270654467,0.22227151140003337
367,0.24958380963190333,0.22459757429554866,0.24978141890645997,0.276037197166088
368,0.2765487086363895,0.23569615097861057,0.24692313077228814,0.24083200961271184
369,0.22227151140003337,0.28670065013448653,0.2687563270654467,0.22227151140003337
370,0.2756358381517024,0.22254053817697775,0.2264994253397732,0.27532419833154664
371,0.24958380963190333,0.22459757429554866,0.24978141890645997,0.276037197166088
372,0.22227151140003337,0.28670065013448653,0.2687563270654467,0.22227151140003337
373,0.2496954367227103,0.2478443453489495,0.27470048157743304,0.22775973635090707
374,0.2764223240926711,0.2461650096075887,0.24969487650034067,0.22771778979939955
375,0.2496954367227103,0.2478443453489495,0.27470048157743304,0.22775973635090707
376,0.22227151140003337,0.28670065013448653,0.2687563270654467,0.22227151140003337
377,0.24671842605155303,0.28551653147963335,0.24494252031088815,0.22282252215792553
378,0.2686105331336013,0.22279506403807978,0.2329553084817064,0.27563909434661255
379,0.2496954367227103,0.2478443453489495,0.27470048157743304,0.22775973635090707
380,0.22227151140003337,0.28670065013448653,0.2687563270654467,0.22227151140003337
381,0.24958380963190333,0.22459757429554866,0.24978141890645997,0.276037197166088
382,0.27055697202169154,0.22273234434830128,0.2311491852506253,0.27556149837938193
383,0.24976552497064355,0.24357272518764644,0.2747775886151622,0.23188416122654784
384,0.24976552497064355,0.24357272518764644,0.2747775886151622,0.23188416122654784
385,0.2496954367227103,0.2478443453489495,0.27470048157743304,0.22775973635090707
386,0.22227151140003337,0.28670065013448653,0.2687563270654467,0.22227151140003337
387,0.24671842605155303,0.28551653147963335,0.24494252031088815,0.22282252215792553
388,0.2764223240926711,0.2461650096075887,0.24969487650034067,0.22771778979939955
389,0.2272438935154232,0.286952277612164,0.26333723727375796,0.22246659159865487
390,0.2496954367227103,0.2478443453489495,0.27470048157743304,0.22775973635090707
391,0.23124781475814604,0.2692362700512223,0.2742467760774314,0.2252691391132003
392,0.22227151140003337,0.28670065013448653,0.2687563270654467,0.22227151140003337
393,0.24671842605155303,0.28551653147963335,0.24494252031088815,0.22282252215792553
394,0.22680395398311315,0.2793681010290941,0.27128607894139994,0.22254186604639276
395,0.2756358381517024,0.22254053817697775,0.2264994253397732,0.27532419833154664
396,0.24958380963190333,0.22459757429554866,0.24978141890645997,0.276037197166088
397,0.24958380963190333,0.22459757429554866,0.24978141890645997,0.276037197166088
398,0.22227151140003337,0.28670065013448653,0.2687563270654467,0.22227151140003337
399,0.2351215148741415,0.2628034726994304,0.2744898855280228,0.22758512689840524
400,0.22680395398311315,0.2793681010290941,0.27128607894139994,0.22254186604639276
401,0.22227151140003337,0.28670065013448653,0.2687563270654467,0.22227151140003337
402,0.25850361612021977,0.22302150323001926,0.24255563874215877,0.27591924190760214
403,0.24989926473259494,0.23738924308673573,0.27174866328989533,0.24096282889077394
404,0.24671842605155303,0.28551653147963335,0.24494252031088815,0.22282252215792553
405,0.2764120288420475,0.2287510994160474,0.24156772107180732,0.2532691506700977
406,0.2765487086363895,0.23569615097861057,0.24692313077228814,0.24083200961271184
407,0.25850361612021977,0.22302150323001926,0.24255563874215877,0.27591924190760214
408,0.22227151140003337,0.28670065013448653,0.2687563270654467,0.22227151140003337
409,0.2764223240926711,0.2461650096075887,0.24969487650034067,0.22771778979939955
410,0.27649198822892346,0.24191539794815328,0.2497578047676401,0.23183480905528323
411,0.2756358381517024,0.22254053817697775,0.2264994253397732,0.27532419833154664
412,0.24976552497064355,0.24357272518764644,0.2747775886151622,0.23188416122654784
413,0.22227151140003337,0.28670065013448653,0.2687563270654467,0.22227151140003337
414,0.2765487086363895,0.23569615097861057,0.24692313077228814,0.24083200961271184
415,0.22681571995332445,0.2767465803792093,0.2738842887563536,0.22255341091111264
416,0.2765487086363895,0.23569615097861057,0.24692313077228814,0.24083200961271184
417,0.22227151140003337,0.28670065013448653,0.2687563270654467,0.22227151140003337
418,0.22912941785406846,0.2742043441954423,0.2740103731474893,0.22265586480299995
419,0.22227151140003337,0.28670065013448653,0.2687563270654467,0.22227151140003337
420,0.22227151140003337,0.28670065013448653,0.2687563270654467,0.22227151140003337
421,0.22227151140003337,0.28670065013448653,0.2687563270654467,0.22227151140003337
422,0.2756358381517024,0.22254053817697775,0.2264994253397732,0.27532419833154664
423,0.24958380963190333,0.22459757429554866,0.24978141890645997,0.276037197166088
424,0.2496954367227103,0.2478443453489495,0.27470048157743304,0.22775973635090707
425,0.22227151140003337,0.28670065013448653,0.2687563270654467,0.22227151140003337
426,0.23133784794858225,0.26683651310152184,0.27435355032843534,0.22747208862146057
427,0.22227151140003337,0.28670065013448653,0.2687563270654467,0.22227151140003337
428,0.22227151140003337,0.28670065013448653,0.2687563270654467,0.22227151140003337
429,0.22227151140003337,0.28670065013448653,0.2687563270654467,0.22227151140003337
430,0.2351215148741415,0.2628034726994304,0.2744898855280228,0.22758512689840524
431,0.24958380963190333,0.22459757429554866,0.24978141890645997,0.276037197166088
432,0.22227151140003337,0.28670065013448653,0.2687563270654467,0.22227151140003337
433,0.2496954367227103,0.2478443453489495,0.27470048157743304,0.22775973635090707
434,0.24958380963190333,0.22459757429554866,0.24978141890645997,0.276037197166088
435,0.24958380963190333,0.22459757429554866,0.24978141890645997,0.276037197166088
436,0.24976552497064355,0.24357272518764644,0.2747775886151622,0.23188416122654784
437,0.24194968366543873,0.28549982092983456,0.24974101447714078,0.22280948092758585
438,0.2496954367227103,0.2478443453489495,0.27470048157743304,0.22775973635090707
439,0.24989926473259494,0.23738924308673573,0.27174866328989533,0.24096282889077394
440,0.22227151140003337,0.28670065013448653,0.2687563270654467,0.22227151140003337
441,0.2496954367227103,0.2478443453489495,0.27470048157743304,0.22775973635090707
442,0.22227151140003337,0.28670065013448653,0.2687563270654467,0.22227151140003337
443,0.27649198822892346,0.24191539794815328,0.2497578047676401,0.23183480905528323
444,0.22681571995332445,0.2767465803792093,0.2738842887563536,0.22255341091111264
445,0.24958380963190333,0.22459757429554866,0.24978141890645997,0.276037197166088
446,0.24958380963190333,0.22459757429554866,0.24978141890645997,0.276037197166088
447,0.22227151140003337,0.28670065013448653,0.2687563270654467,0.22227151140003337
448,0.2756358381517024,0.22254053817697775,0.2264994253397732,0.27532419833154664
449,0.2756358381517024,0.22254053817697775,0.2264994253397732,0.27532419833154664
450,0.2306621982024805,0.2852415355675873,0.2614883561030077,0.2226079101269245
451,0.24958380963190333,0.22459757429554866,0.24978141890645997,0.276037197166088
452,0.22227151140003337,0.28670065013448653,0.2687563270654467,0.22227151140003337
453,0.24671842605155303,0.28551653147963335,0.24494252031088815,0.22282252215792553
454,0.24012407192037208,0.28547918522123267,0.25160336642960446,0.22279337642879077
455,0.22681571995332445,0.2767465803792093,0.2738842887563536,0.22255341091111264
456,0.22227151140003337,0.28670065013448653,0.2687563270654467,0.22227151140003337
457,0.22227151140003337,0.28670065013448653,0.2687563270654467,0.22227151140003337
458,0.22681571995332445,0.2767465803792093,0.2738842887563536,0.22255341091111264
459,0.23133784794858225,0.26683651310152184,0.27435355032843534,0.22747208862146057
460,0.24958380963190333,0.22459757429554866,0.24978141890645997,0.276037197166088
461,0.2665502291945223,0.22285482973899404,0.2348819053884322,0.2757130356780515
462,0.24671842605155303,0.28551653147963335,0.24494252031088815,0.22282252215792553
463,0.24991780735486605,0.23052533148517196,0.26600601904899385,0.2535508421109681
464,0.2764223240926711,0.2461650096075887,0.24969487650034067,0.22771778979939955
465,0.24194968366543873,0.28549982092983456,0.24974101447714078,0.22280948092758585
466,0.2709145832056522,0.22302674288763125,0.2403985343898644,0.26566013951685236
467,0.24958380963190333,0.22459757429554866,0.24978141890645997,0.276037197166088
468,0.27649198822892346,0.24191539794815328,0.2497578047676401,0.23183480905528323
469,0.22227151140003337,0.28670065013448653,0.2687563270654467,0.22227151140003337
470,0.2756358381517024,0.22254053817697775,0.2264994253397732,0.27532419833154664
471,0.2496954367227103,0.2478443453489495,0.27470048157743304,0.22775973635090707
472,0.2496954367227103,0.2478443453489495,0.27470048157743304,0.22775973635090707
473,0.22227151140003337,0.28670065013448653,0.2687563270654467,0.22227151140003337
474,0.26913145853958803,0.25315378064233524,0.24985287702854642,0.22786188378953035
475,0.24958380963190333,0.22459757429554866,0.24978141890645997,0.276037197166088
476,0.2496954367227103,0.2478443453489495,0.27470048157743304,0.22775973635090707
477,0.22227151140003337,0.28670065013448653,0.2687563270654467,0.22227151140003337
478,0.22227151140003337,0.28670065013448653,0.2687563270654467,0.22227151140003337
479,0.2764223240926711,0.2461650096075887,0.24969487650034067,0.22771778979939955
480,0.24958380963190333,0.22459757429554866,0.24978141890645997,0.276037197166088
481,0.2756358381517024,0.22254053817697775,0.2264994253397732,0.27532419833154664
482,0.24958380963190333,0.22459757429554866,0.24978141890645997,0.276037197166088
483,0.22227151140003337,0.28670065013448653,0.2687563270654467,0.22227151140003337
484,0.2764120288420475,0.2287510994160474,0.24156772107180732,0.2532691506700977
485,0.2496954367227103,0.2478443453489495,0.27470048157743304,0.22775973635090707
486,0.24958380963190333,0.22459757429554866,0.24978141890645997,0.276037197166088
487,0.27055697202169154,0.22273234434830128,0.2311491852506253,0.27556149837938193
488,0.24958380963190333,0.22459757429554866,0.24978141890645997,0.276037197166088
489,0.24958380963190333,0.22459757429554866,0.24978141890645997,0.276037197166088
490,0.24958380963190333,0.22459757429554866,0.24978141890645997,0.276037197166088
491,0.2292504711286587,0.2714005244888186,0.2741551378540549,0.22519386652846785
492,0.2765487086363895,0.23569615097861057,0.24692313077228814,0.24083200961271184
493,0.2496954367227103,0.2478443453489495,0.27470048157743304,0.22775973635090707
494,0.2756358381517024,0.22254053817697775,0.2264994253397732,0.27532419833154664
495,0.22680395398311315,0.2793681010290941,0.27128607894139994,0.22254186604639276
496,0.2686105331336013,0.22279506403807978,0.2329553084817064,0.27563909434661255
497,0.22227151140003337,0.28670065013448653,0.2687563270654467,0.22227151140003337
498,0.22227151140003337,0.28670065013448653,0.2687563270654467,0.22227151140003337
499,0.2644829580810333,0.22290787370111398,0.23683050725432914,0.2757786609635237
500,0.22227151140003337,0.28670065013448653,0.2687563270654467,0.22227151140003337
501,0.24958380963190333,0.22459757429554866,0.24978141890645997,0.276037197166088
502,0.22227151140003337,0.28670065013448653,0.2687563270654467,0.22227151140003337
503,0.2756358381517024,0.22254053817697775,0.2264994253397732,0.27532419833154664
504,0.24958380963190333,0.22459757429554866,0.24978141890645997,0.276037197166088
505,0.24958380963190333,0.22459757429554866,0.24978141890645997,0.276037197166088
506,0.2496954367227103,0.2478443453489495,0.27470048157743304,0.22775973635090707
507,0.2764223240926711,0.2461650096075887,0.24969487650034067,0.22771778979939955
508,0.2756358381517024,0.22254053817697775,0.2264994253397732,0.27532419833154664
509,0.22227151140003337,0.28670065013448653,0.2687563270654467,0.22227151140003337
510,0.22227151140003337,0.28670065013448653,0.2687563270654467,0.22227151140003337
511,0.22227151140003337,0.28670065013448653,0.2687563270654467,0.22227151140003337
512,0.251267088896921,0.2245953318658973,0.24810313808481183,0.2760344411523699
513,0.22912941785406846,0.2742043441954423,0.2740103731474893,0.22265586480299995
514,0.2712777384514055,0.24201719612816364,0.25477270010446706,0.23193236531596376
515,0.2496954367227103,0.2478443453489495,0.27470048157743304,0.22775973635090707
516,0.22227151140003337,0.28670065013448653,0.2687563270654467,0.22227151140003337
517,0.2496954367227103,0.2478443453489495,0.27470048157743304,0.22775973635090707
518,0.24958380963190333,0.22459757429554866,0.24978141890645997,0.276037197166088
519,0.27240127288181515,0.22266736720773445,0.22945025038643385,0.2754811095240166
520,0.24958380963190333,0.22459757429554866,0.24978141890645997,0.276037197166088
521,0.22227151140003337,0.28670065013448653,0.2687563270654467,0.22227151140003337
522,0.24973808021879731,0.2247364006066489,0.25959378019870055,0.26593173897585326
523,0.2764223240926711,0.2461650096075887,0.24969487650034067,0.22771778979939955
524,0.23707778393390375,0.2607430610461055,0.274546821419828,0.2276323336001627
525,0.24958380963190333,0.22459757429554866,0.24978141890645997,0.276037197166088
526,0.22227151140003337,0.28670065013448653,0.2687563270654467,0.22227151140003337
527,0.24976552497064355,0.24357272518764644,0.2747775886151622,0.23188416122654784
528,0.25662894851913526,0.2655761118425382,0.24989481190383026,0.22790012773449628
529,0.2686105331336013,0.22279506403807978,0.2329553084817064,0.27563909434661255
530,0.22227151140003337,0.28670065013448653,0.2687563270654467,0.22227151140003337
531,0.2756358381517024,0.22254053817697775,0.2264994253397732,0.27532419833154664
532,0.24976552497064355,0.24357272518764644,0.2747775886151622,0.23188416122654784
533,0.2756358381517024,0.22254053817697775,0.2264994253397732,0.27532419833154664
534,0.22227151140003337,0.28670065013448653,0.2687563270654467,0.22227151140003337
535,0.2496954367227103,0.2478443453489495,0.27470048157743304,0.22775973635090707
536,0.22227151140003337,0.28670065013448653,0.2687563270654467,0.22227151140003337
537,0.2381928573629116,0.2854486199762488,0.25358899992956463,0.22276952273127495
538,0.24973808021879731,0.2247364006066489,0.25959378019870055,0.26593173897585326
539,0.22227151140003337,0.28670065013448653,0.2687563270654467,0.22227151140003337
540,0.27649198822892346,0.24191539794815328,0.2497578047676401,0.23183480905528323
541,0.22227151140003337,0.28670065013448653,0.2687563270654467,0.22227151140003337
542,0.27055697202169154,0.22273234434830128,0.2311491852506253,0.27556149837938193
543,0.22367094972152926,0.2851186955091336,0.2688562244798326,0.22235413028950457
544,0.27649198822892346,0.24191539794815328,0.2497578047676401,0.23183480905528323
545,0.24991780735486605,0.23052533148517196,0.26600601904899385,0.2535508421109681
546,0.24964839435044703,0.22465569333437121,0.25263047797959803,0.2730654343355838
547,0.24989926473259494,0.23738924308673573,0.27174866328989533,0.24096282889077394
548,0.23625634768559436,0.28540884275892364,0.2555963297198422,0.22273847983563985
549,0.22227151140003337,0.28670065013448653,0.2687563270654467,0.22227151140003337
550,0.24958380963190333,0.22459757429554866,0.24978141890645997,0.276037197166088
551,0.2756358381517024,0.22254053817697775,0.2264994253397732,0.27532419833154664
552,0.25850361612021977,0.22302150323001926,0.24255563874215877,0.27591924190760214
553,0.2688442699783645,0.2229889336331756,0.23875419870893358,0.2694125976795263
554,0.22227151140003337,0.28670065013448653,0.2687563270654467,0.22227151140003337
555,0.2306621982024805,0.2852415355675873,0.2614883561030077,0.2226079101269245
556,0.2496954367227103,0.2478443453489495,0.27470048157743304,0.22775973635090707
557,0.2496954367227103,0.2478443453489495,0.27470048157743304,0.22775973635090707
558,0.23124781475814604,0.2692362700512223,0.2742467760774314,0.2252691391132003
559,0.27649198822892346,0.24191539794815328,0.2497578047676401,0.23183480905528323
560,0.2756358381517024,0.22254053817697775,0.2264994253397732,0.27532419833154664
561,0.2644829580810333,0.22290787370111398,0.23683050725432914,0.2757786609635237
562,0.24976552497064355,0.24357272518764644,0.2747775886151622,0.23188416122654784
563,0.25304789295246954,0.22458746389062226,0.24633987198360693,0.27602477117330126
564,0.2764223240926711,0.2461650096075887,0.24969487650034067,0.22771778979939955
565,0.24671842605155303,0.28551653147963335,0.24494252031088815,0.22282252215792553
566,0.22227151140003337,0.28670065013448653,0.2687563270654467,0.22227151140003337
567,0.27055697202169154,0.22273234434830128,0.2311491852506253,0.27556149837938193
568,0.22227151140003337,0.28670065013448653,0.2687563270654467,0.22227151140003337
569,0.26913145853958803,0.25315378064233524,0.24985287702854642,0.22786188378953035
570,0.22227151140003337,0.28670065013448653,0.2687563270654467,0.22227151140003337
571,0.22227151140003337,0.28670065013448653,0.2687563270654467,0.22227151140003337
572,0.2764223240926711,0.2461650096075887,0.24969487650034067,0.22771778979939955
573,0.24958380963190333,0.22459757429554866,0.24978141890645997,0.276037197166088
574,0.24671842605155303,0.28551653147963335,0.24494252031088815,0.22282252215792553
575,0.22227151140003337,0.28670065013448653,0.2687563270654467,0.22227151140003337
576,0.24958380963190333,0.22459757429554866,0.24978141890645997,0.276037197166088
577,0.22227151140003337,0.28670065013448653,0.2687563270654467,0.22227151140003337
578,0.22227151140003337,0.28670065013448653,0.2687563270654467,0.22227151140003337
579,0.26205910324356213,0.25323765255992126,0.2567658679016414,0.22793737629487518
580,0.2712777384514055,0.24201719612816364,0.25477270010446706,0.23193236531596376
581,0.24368050777102804,0.2855120587271474,0.24798840196486135,0.2228190315369631
582,0.23133784794858225,0.26683651310152184,0.27435355032843534,0.22747208862146057
583,0.22680395398311315,0.2793681010290941,0.27128607894139994,0.22254186604639276
584,0.22227151140003337,0.28670065013448653,0.2687563270654467,0.22227151140003337
585,0.22227151140003337,0.28670065013448653,0.2687563270654467,0.22227151140003337
586,0.22227151140003337,0.28670065013448653,0.2687563270654467,0.22227151140003337
587,0.22227151140003337,0.28670065013448653,0.2687563270654467,0.22227151140003337
588,0.22227151140003337,0.28670065013448653,0.2687563270654467,0.22227151140003337
589,0.2496954367227103,0.2478443453489495,0.27470048157743304,0.22775973635090707
590,0.24958380963190333,0.22459757429554866,0.24978141890645997,0.276037197166088
591,0.24958380963190333,0.22459757429554866,0.24978141890645997,0.276037197166088
592,0.24958380963190333,0.22459757429554866,0.24978141890645997,0.276037197166088
593,0.22227151140003337,0.28670065013448653,0.2687563270654467,0.22227151140003337
594,0.24976552497064355,0.24357272518764644,0.2747775886151622,0.23188416122654784
595,0.22227151140003337,0.28670065013448653,0.2687563270654467,0.22227151140003337
596,0.22227151140003337,0.28670065013448653,0.2687563270654467,0.22227151140003337
597,0.24958380963190333,0.22459757429554866,0.24978141890645997,0.276037197166088
598,0.24671842605155303,0.28551653147963335,0.24494252031088815,0.22282252215792553
599,0.2764223240926711,0.2461650096075887,0.24969487650034067,0.22771778979939955
600,0.24958380963190333,0.22459757429554866,0.24978141890645997,0.276037197166088
601,0.22227151140003337,0.28670065013448653,0.2687563270654467,0.22227151140003337
602,0.2496954367227103,0.2478443453489495,0.27470048157743304,0.22775973635090707
603,0.24976552497064355,0.24357272518764644,0.2747775886151622,0.23188416122654784
604,0.27055697202169154,0.22273234434830128,0.2311491852506253,0.27556149837938193
605,0.24958380963190333,0.22459757429554866,0.24978141890645997,0.276037197166088
606,0.22227151140003337,0.28670065013448653,0.2687563270654467,0.22227151140003337
607,0.22227151140003337,0.28670065013448653,0.2687563270654467,0.22227151140003337
608,0.2496954367227103,0.2478443453489495,0.27470048157743304,0.22775973635090707
609,0.25850361612021977,0.22302150323001926,0.24255563874215877,0.27591924190760214
610,0.24958380963190333,0.22459757429554866,0.24978141890645997,0.276037197166088
611,0.2496954367227103,0.2478443453489495,0.27470048157743304,0.22775973635090707
612,0.24958380963190333,0.22459757429554866,0.24978141890645997,0.276037197166088
613,0.24958380963190333,0.22459757429554866,0.24978141890645997,0.276037197166088
614,0.22227151140003337,0.28670065013448653,0.2687563270654467,0.22227151140003337
615,0.27055697202169154,0.22273234434830128,0.2311491852506253,0.27556149837938193
616,0.24958380963190333,0.22459757429554866,0.24978141890645997,0.276037197166088
617,0.22227151140003337,0.28670065013448653,0.2687563270654467,0.22227151140003337
618,0.22227151140003337,0.28670065013448653,0.2687563270654467,0.22227151140003337
619,0.22681571995332445,0.2767465803792093,0.2738842887563536,0.22255341091111264
620,0.22681571995332445,0.2767465803792093,0.2738842887563536,0.22255341091111264
621,0.22227151140003337,0.28670065013448653,0.2687563270654467,0.22227151140003337
622,0.2516922249568515,0.26558544591802663,0.2548141914947756,0.22790813763034623
623,0.22227151140003337,0.28670065013448653,0.2687563270654467,0.22227151140003337
624,0.22227151140003337,0.28670065013448653,0.2687563270654467,0.22227151140003337
625,0.24012407192037208,0.28547918522123267,0.25160336642960446,0.22279337642879077
626,0.2496954367227103,0.2478443453489495,0.27470048157743304,0.22775973635090707
627,0.2496954367227103,0.2478443453489495,0.27470048157743304,0.22775973635090707
628,0.24958380963190333,0.22459757429554866,0.24978141890645997,0.276037197166088
629,0.2756358381517024,0.22254053817697775,0.2264994253397732,0.27532419833154664
630,0.24958380963190333,0.22459757429554866,0.24978141890645997,0.276037197166088
631,0.22227151140003337,0.28670065013448653,0.2687563270654467,0.22227151140003337
632,0.24964839435044703,0.22465569333437121,0.25263047797959803,0.2730654343355838
633,0.24991780735486605,0.23052533148517196,0.26600601904899385,0.2535508421109681
634,0.2764223240926711,0.2461650096075887,0.24969487650034067,0.22771778979939955
635,0.2496954367227103,0.2478443453489495,0.27470048157743304,0.22775973635090707
636,0.22367094972152926,0.2851186955091336,0.2688562244798326,0.22235413028950457
637,0.27577657016555096,0.22265416120332512,0.2291405938810971,0.2724286747500267
638,0.2496954367227103,0.2478443453489495,0.27470048157743304,0.22775973635090707
639,0.22227151140003337,0.28670065013448653,0.2687563270654467,0.22227151140003337
640,0.23625634768559436,0.28540884275892364,0.2555963297198422,0.22273847983563985
641,0.2351215148741415,0.2628034726994304,0.2744898855280228,0.22758512689840524
642,0.2665502291945223,0.22285482973899404,0.2348819053884322,0.2757130356780515
643,0.2756358381517024,0.22254053817697775,0.2264994253397732,0.27532419833154664
644,0.22227151140003337,0.28670065013448653,0.2687563270654467,0.22227151140003337
645,0.24958380963190333,0.22459757429554866,0.24978141890645997,0.276037197166088
646,0.22227151140003337,0.28670065013448653,0.2687563270654467,0.22227151140003337
647,0.24958380963190333,0.22459757429554866,0.24978141890645997,0.276037197166088
648,0.22227151140003337,0.28670065013448653,0.2687563270654467,0.22227151140003337
649,0.22227151140003337,0.28670065013448653,0.2687563270654467,0.22227151140003337
650,0.27055697202169154,0.22273234434830128,0.2311491852506253,0.27556149837938193
651,0.22227151140003337,0.28670065013448653,0.2687563270654467,0.22227151140003337
652,0.24671842605155303,0.28551653147963335,0.24494252031088815,0.22282252215792553
653,0.22227151140003337,0.28670065013448653,0.2687563270654467,0.22227151140003337
654,0.24958380963190333,0.22459757429554866,0.24978141890645997,0.276037197166088
655,0.24958380963190333,0.22459757429554866,0.24978141890645997,0.276037197166088
656,0.22227151140003337,0.28670065013448653,0.2687563270654467,0.22227151140003337
657,0.22227151140003337,0.28670065013448653,0.2687563270654467,0.22227151140003337
658,0.22227151140003337,0.28670065013448653,0.2687563270654467,0.22227151140003337
659,0.22227151140003337,0.28670065013448653,0.2687563270654467,0.22227151140003337
660,0.24958380963190333,0.22459757429554866,0.24978141890645997,0.276037197166088
661,0.22227151140003337,0.28670065013448653,0.2687563270654467,0.22227151140003337
662,0.24292283574736154,0.25468507578998073,0.27466323445544255,0.22772885400721524
663,0.22227151140003337,0.28670065013448653,0.2687563270654467,0.22227151140003337
664,0.22227151140003337,0.28670065013448653,0.2687563270654467,0.22227151140003337
665,0.22227151140003337,0.28670065013448653,0.2687563270654467,0.22227151140003337
666,0.24973808021879731,0.2247364006066489,0.25959378019870055,0.26593173897585326
667,0.2292504711286587,0.2714005244888186,0.2741551378540549,0.22519386652846785
668,0.22367094972152926,0.2851186955091336,0.2688562244798326,0.22235413028950457
669,0.22227151140003337,0.28670065013448653,0.2687563270654467,0.22227151140003337
670,0.23133784794858225,0.26683651310152184,0.27435355032843534,0.22747208862146057
671,0.22227151140003337,0.28670065013448653,0.2687563270654467,0.22227151140003337
672,0.22227151140003337,0.28670065013448653,0.2687563270654467,0.22227151140003337
673,0.24958380963190333,0.22459757429554866,0.24978141890645997,0.276037197166088
674,0.22367094972152926,0.2851186955091336,0.2688562244798326,0.22235413028950457
675,0.24958380963190333,0.22459757429554866,0.24978141890645997,0.276037197166088
676,0.2764223240926711,0.2461650096075887,0.24969487650034067,0.22771778979939955
677,0.2686105331336013,0.22279506403807978,0.2329553084817064,0.27563909434661255
678,0.22227151140003337,0.28670065013448653,0.2687563270654467,0.22227151140003337
679,0.25653312679869816,0.2679687686679447,0.24980150461740327,0.22569659991595387
680,0.24958380963190333,0.22459757429554866,0.24978141890645997,0.276037197166088
681,0.24958380963190333,0.22459757429554866,0.24978141890645997,0.276037197166088
682,0.24958380963190333,0.22459757429554866,0.24978141890645997,0.276037197166088
683,0.24958380963190333,0.22459757429554866,0.24978141890645997,0.276037197166088
684,0.24194968366543873,0.28549982092983456,0.24974101447714078,0.22280948092758585
685,0.23707778393390375,0.2607430610461055,0.274546821419828,0.2276323336001627
686,0.2756358381517024,0.22254053817697775,0.2264994253397732,0.27532419833154664
687,0.22227151140003337,0.28670065013448653,0.2687563270654467,0.22227151140003337
688,0.26913145853958803,0.25315378064233524,0.24985287702854642,0.22786188378953035
689,0.22227151140003337,0.28670065013448653,0.2687563270654467,0.22227151140003337
690,0.22227151140003337,0.28670065013448653,0.2687563270654467,0.22227151140003337
691,0.27649198822892346,0.24191539794815328,0.2497578047676401,0.23183480905528323
692,0.27055697202169154,0.22273234434830128,0.2311491852506253,0.27556149837938193
693,0.24958380963190333,0.22459757429554866,0.24978141890645997,0.276037197166088
694,0.2686105331336013,0.22279506403807978,0.2329553084817064,0.27563909434661255
695,0.24958380963190333,0.22459757429554866,0.24978141890645997,0.276037197166088
696,0.22227151140003337,0.28670065013448653,0.2687563270654467,0.22227151140003337
697,0.24012407192037208,0.28547918522123267,0.25160336642960446,0.22279337642879077
698,0.24958380963190333,0.22459757429554866,0.24978141890645997,0.276037197166088
699,0.2551628273252194,0.24794673527046868,0.2690366085232833,0.22785382888102865
700,0.22680395398311315,0.2793681010290941,0.27128607894139994,0.22254186604639276
701,0.24958380963190333,0.22459757429554866,0.24978141890645997,0.276037197166088
702,0.27577657016555096,0.22265416120332512,0.2291405938810971,0.2724286747500267
703,0.2496954367227103,0.2478443453489495,0.27470048157743304,0.22775973635090707
704,0.2764120288420475,0.2287510994160474,0.24156772107180732,0.2532691506700977
705,0.24964839435044703,0.22465569333437121,0.25263047797959803,0.2730654343355838
706,0.2764223240926711,0.2461650096075887,0.24969487650034067,0.22771778979939955
707,0.24958380963190333,0.22459757429554866,0.24978141890645997,0.276037197166088
708,0.22227151140003337,0.28670065013448653,0.2687563270654467,0.22227151140003337
709,0.2764223240926711,0.2461650096075887,0.24969487650034067,0.22771778979939955
710,0.23707778393390375,0.2607430610461055,0.274546821419828,0.2276323336001627
711,0.23625634768559436,0.28540884275892364,0.2555963297198422,0.22273847983563985
712,0.2756358381517024,0.22254053817697775,0.2264994253397732,0.27532419833154664
713,0.22227151140003337,0.28670065013448653,0.2687563270654467,0.22227151140003337
714,0.24958380963190333,0.22459757429554866,0.24978141890645997,0.276037197166088
715,0.22227151140003337,0.28670065013448653,0.2687563270654467,0.22227151140003337
716,0.24958380963190333,0.22459757429554866,0.24978141890645997,0.276037197166088
717,0.22227151140003337,0.28670065013448653,0.2687563270654467,0.22227151140003337
718,0.22227151140003337,0.28670065013448653,0.2687563270654467,0.22227151140003337
719,0.24989926473259494,0.23738924308673573,0.27174866328989533,0.24096282889077394
720,0.22227151140003337,0.28670065013448653,0.2687563270654467,0.22227151140003337
721,0.24958380963190333,0.22459757429554866,0.24978141890645997,0.276037197166088
722,0.24160861943995718,0.28387190448596084,0.251668459815477,0.22285101625860507
723,0.22227151140003337,0.28670065013448653,0.2687563270654467,0.22227151140003337
724,0.22367094972152926,0.2851186955091336,0.2688562244798326,0.22235413028950457
725,0.22227151140003337,0.28670065013448653,0.2687563270654467,0.22227151140003337
726,0.22227151140003337,0.28670065013448653,0.2687563270654467,0.22227151140003337
727,0.2496954367227103,0.2478443453489495,0.27470048157743304,0.22775973635090707
728,0.24958380963190333,0.22459757429554866,0.24978141890645997,0.276037197166088
729,0.22227151140003337,0.28670065013448653,0.2687563270654467,0.22227151140003337
730,0.22227151140003337,0.28670065013448653,0.2687563270654467,0.22227151140003337
731,0.24976552497064355,0.24357272518764644,0.2747775886151622,0.23188416122654784
732,0.2549966521227833,0.22464445848420708,0.24730711083972196,0.27305177855328766
733,0.25491576985844167,0.22457320361743632,0.24450378165694137,0.27600724486718065
734,0.2496954367227103,0.2478443453489495,0.27470048157743304,0.22775973635090707
735,0.2764223240926711,0.2461650096075887,0.24969487650034067,0.22771778979939955
736,0.27649198822892346,0.24191539794815328,0.2497578047676401,0.23183480905528323
737,0.2252477131315465,0.28520226428629214,0.2671307199168808,0.22241930266528046
738,0.2496954367227103,0.2478443453489495,0.27470048157743304,0.22775973635090707
739,0.2756358381517024,0.22254053817697775,0.2264994253397732,0.27532419833154664
740,0.24958380963190333,0.22459757429554866,0.24978141890645997,0.276037197166088
741,0.22227151140003337,0.28670065013448653,0.2687563270654467,0.22227151140003337
742,0.24958380963190333,0.22459757429554866,0.24978141890645997,0.276037197166088
743,0.2764223240926711,0.2461650096075887,0.24969487650034067,0.22771778979939955
744,0.2496954367227103,0.2478443453489495,0.27470048157743304,0.22775973635090707
745,0.2306621982024805,0.2852415355675873,0.2614883561030077,0.2226079101269245
746,0.22227151140003337,0.28670065013448653,0.2687563270654467,0.22227151140003337
747,0.2756358381517024,0.22254053817697775,0.2264994253397732,0.27532419833154664
748,0.2496954367227103,0.2478443453489495,0.27470048157743304,0.22775973635090707
749,0.22227151140003337,0.28670065013448653,0.2687563270654467,0.22227151140003337
750,0.22227151140003337,0.28670065013448653,0.2687563270654467,0.22227151140003337
751,0.24958380963190333,0.22459757429554866,0.24978141890645997,0.276037197166088
752,0.24958380963190333,0.22459757429554866,0.24978141890645997,0.276037197166088
753,0.2756358381517024,0.22254053817697775,0.2264994253397732,0.27532419833154664
754,0.22227151140003337,0.28670065013448653,0.2687563270654467,0.22227151140003337
755,0.22227151140003337,0.28670065013448653,0.2687563270654467,0.22227151140003337
756,0.24671842605155303,0.28551653147963335,0.24494252031088815,0.22282252215792553
757,0.22227151140003337,0.28670065013448653,0.2687563270654467,0.22227151140003337
758,0.2756358381517024,0.22254053817697775,0.2264994253397732,0.27532419833154664
759,0.27055697202169154,0.22273234434830128,0.2311491852506253,0.27556149837938193
760,0.2764223240926711,0.2461650096075887,0.24969487650034067,0.22771778979939955
761,0.22227151140003337,0.28670065013448653,0.2687563270654467,0.22227151140003337
762,0.2764223240926711,0.2461650096075887,0.24969487650034067,0.22771778979939955
763,0.24958380963190333,0.22459757429554866,0.24978141890645997,0.276037197166088
764,0.2292504711286587,0.2714005244888186,0.2741551378540549,0.22519386652846785
765,0.22227151140003337,0.28670065013448653,0.2687563270654467,0.22227151140003337
766,0.24958380963190333,0.22459757429554866,0.24978141890645997,0.276037197166088
767,0.2764223240926711,0.2461650096075887,0.24969487650034067,0.22771778979939955
768,0.24972282926461628,0.2247226764499426,0.2576696548611619,0.2678848394242792
769,0.22227151140003337,0.28670065013448653,0.2687563270654467,0.22227151140003337
770,0.2496954367227103,0.2478443453489495,0.27470048157743304,0.22775973635090707
771,0.24958380963190333,0.22459757429554866,0.24978141890645997,0.276037197166088
772,0.2764223240926711,0.2461650096075887,0.24969487650034067,0.22771778979939955
773,0.26913145853958803,0.25315378064233524,0.24985287702854642,0.22786188378953035
774,0.22227151140003337,0.28670065013448653,0.2687563270654467,0.22227151140003337
775,0.2764223240926711,0.2461650096075887,0.24969487650034067,0.22771778979939955
776,0.2496954367227103,0.2478443453489495,0.27470048157743304,0.22775973635090707
777,0.2496954367227103,0.2478443453489495,0.27470048157743304,0.22775973635090707
778,0.2756358381517024,0.22254053817697775,0.2264994253397732,0.27532419833154664
779,0.22227151140003337,0.28670065013448653,0.2687563270654467,0.22227151140003337
780,0.22367094972152926,0.2851186955091336,0.2688562244798326,0.22235413028950457
781,0.22227151140003337,0.28670065013448653,0.2687563270654467,0.22227151140003337
782,0.24012407192037208,0.28547918522123267,0.25160336642960446,0.22279337642879077
783,0.22227151140003337,0.28670065013448653,0.2687563270654467,0.22227151140003337
784,0.2496954367227103,0.2478443453489495,0.27470048157743304,0.22775973635090707
785,0.24958380963190333,0.22459757429554866,0.24978141890645997,0.276037197166088
786,0.22227151140003337,0.28670065013448653,0.2687563270654467,0.22227151140003337
787,0.2764223240926711,0.2461650096075887,0.24969487650034067,0.22771778979939955
788,0.24958380963190333,0.22459757429554866,0.24978141890645997,0.276037197166088
789,0.2272438935154232,0.286952277612164,0.26333723727375796,0.22246659159865487
790,0.22227151140003337,0.28670065013448653,0.2687563270654467,0.22227151140003337
791,0.24958380963190333,0.22459757429554866,0.24978141890645997,0.276037197166088
792,0.24976552497064355,0.24357272518764644,0.2747775886151622,0.23188416122654784
793,0.2496954367227103,0.2478443453489495,0.27470048157743304,0.22775973635090707
794,0.24976552497064355,0.24357272518764644,0.2747775886151622,0.23188416122654784
795,0.2764223240926711,0.2461650096075887,0.24969487650034067,0.22771778979939955
796,0.22227151140003337,0.28670065013448653,0.2687563270654467,0.22227151140003337
797,0.2496954367227103,0.2478443453489495,0.27470048157743304,0.22775973635090707
798,0.22227151140003337,0.28670065013448653,0.2687563270654467,0.22227151140003337
799,0.22227151140003337,0.28670065013448653,0.2687563270654467,0.22227151140003337
800,0.22227151140003337,0.28670065013448653,0.2687563270654467,0.22227151140003337
801,0.27649198822892346,0.24191539794815328,0.2497578047676401,0.23183480905528323
802,0.24958380963190333,0.22459757429554866,0.24978141890645997,0.276037197166088
803,0.2765487086363895,0.23569615097861057,0.24692313077228814,0.24083200961271184
804,0.24958380963190333,0.22459757429554866,0.24978141890645997,0.276037197166088
805,0.2496954367227103,0.2478443453489495,0.27470048157743304,0.22775973635090707
806,0.24671842605155303,0.28551653147963335,0.24494252031088815,0.22282252215792553
807,0.22227151140003337,0.28670065013448653,0.2687563270654467,0.22227151140003337
808,0.24958380963190333,0.22459757429554866,0.24978141890645997,0.276037197166088
809,0.2764223240926711,0.2461650096075887,0.24969487650034067,0.22771778979939955
810,0.24958380963190333,0.22459757429554866,0.24978141890645997,0.276037197166088
811,0.22227151140003337,0.28670065013448653,0.2687563270654467,0.22227151140003337
812,0.22227151140003337,0.28670065013448653,0.2687563270654467,0.22227151140003337
813,0.2764223240926711,0.2461650096075887,0.24969487650034067,0.22771778979939955
814,0.2756358381517024,0.22254053817697775,0.2264994253397732,0.27532419833154664
815,0.22227151140003337,0.28670065013448653,0.2687563270654467,0.22227151140003337
816,0.24958380963190333,0.22459757429554866,0.24978141890645997,0.276037197166088
817,0.25662894851913526,0.2655761118425382,0.24989481190383026,0.22790012773449628
818,0.24958380963190333,0.22459757429554866,0.24978141890645997,0.276037197166088
819,0.24974637905356042,0.22474386863175846,0.2616096963255617,0.2639000559891193
820,0.22227151140003337,0.28670065013448653,0.2687563270654467,0.22227151140003337
821,0.2764223240926711,0.2461650096075887,0.24969487650034067,0.22771778979939955
822,0.22227151140003337,0.28670065013448653,0.2687563270654467,0.22227151140003337
823,0.22227151140003337,0.28670065013448653,0.2687563270654467,0.22227151140003337
824,0.22227151140003337,0.28670065013448653,0.2687563270654467,0.22227151140003337
825,0.22227151140003337,0.28670065013448653,0.2687563270654467,0.22227151140003337
826,0.24991780735486605,0.23052533148517196,0.26600601904899385,0.2535508421109681
827,0.24958380963190333,0.22459757429554866,0.24978141890645997,0.276037197166088
828,0.2496954367227103,0.2478443453489495,0.27470048157743304,0.22775973635090707
829,0.2496954367227103,0.2478443453489495,0.27470048157743304,0.22775973635090707
830,0.2351215148741415,0.2628034726994304,0.2744898855280228,0.22758512689840524
831,0.22227151140003337,0.28670065013448653,0.2687563270654467,0.22227151140003337
832,0.27649198822892346,0.24191539794815328,0.2497578047676401,0.23183480905528323
833,0.22227151140003337,0.28670065013448653,0.2687563270654467,0.22227151140003337
834,0.2765487086363895,0.23569615097861057,0.24692313077228814,0.24083200961271184
835,0.2764223240926711,0.2461650096075887,0.24969487650034067,0.22771778979939955
836,0.25890694956898636,0.24206462926270614,0.2670505992514709,0.23197782191683675
837,0.27649198822892346,0.24191539794815328,0.2497578047676401,0.23183480905528323
838,0.2496954367227103,0.2478443453489495,0.27470048157743304,0.22775973635090707
839,0.22227151140003337,0.28670065013448653,0.2687563270654467,0.22227151140003337
840,0.24958380963190333,0.22459757429554866,0.24978141890645997,0.276037197166088
841,0.27649198822892346,0.24191539794815328,0.2497578047676401,0.23183480905528323
842,0.2670974752288366,0.24631594729841516,0.25872916101638715,0.22785741645636115
843,0.24958380963190333,0.22459757429554866,0.24978141890645997,0.276037197166088
844,0.24958380963190333,0.22459757429554866,0.24978141890645997,0.276037197166088
845,0.24958380963190333,0.22459757429554866,0.24978141890645997,0.276037197166088
846,0.22227151140003337,0.28670065013448653,0.2687563270654467,0.22227151140003337
847,0.2272438935154232,0.286952277612164,0.26333723727375796,0.22246659159865487
848,0.2686105331336013,0.22279506403807978,0.2329553084817064,0.27563909434661255
849,0.2665502291945223,0.22285482973899404,0.2348819053884322,0.2757130356780515
850,0.27649198822892346,0.24191539794815328,0.2497578047676401,0.23183480905528323
851,0.24194968366543873,0.28549982092983456,0.24974101447714078,0.22280948092758585
852,0.24958380963190333,0.22459757429554866,0.24978141890645997,0.276037197166088
853,0.22227151140003337,0.28670065013448653,0.2687563270654467,0.22227151140003337
854,0.2496954367227103,0.2478443453489495,0.27470048157743304,0.22775973635090707
855,0.2756358381517024,0.22254053817697775,0.2264994253397732,0.27532419833154664
856,0.22227151140003337,0.28670065013448653,0.2687563270654467,0.22227151140003337
857,0.2756358381517024,0.22254053817697775,0.2264994253397732,0.27532419833154664
858,0.22227151140003337,0.28670065013448653,0.2687563270654467,0.22227151140003337
859,0.2756358381517024,0.22254053817697775,0.2264994253397732,0.27532419833154664
860,0.24958380963190333,0.22459757429554866,0.24978141890645997,0.276037197166088
861,0.255234479839383,0.24367337866608385,0.2691121569470284,0.2319799845475047
862,0.22227151140003337,0.28670065013448653,0.2687563270654467,0.22227151140003337
863,0.24991780735486605,0.23052533148517196,0.26600601904899385,0.2535508421109681
864,0.24958380963190333,0.22459757429554866,0.24978141890645997,0.276037197166088
865,0.24671842605155303,0.28551653147963335,0.24494252031088815,0.22282252215792553
866,0.24958380963190333,0.22459757429554866,0.24978141890645997,0.276037197166088
867,0.24958380963190333,0.22459757429554866,0.24978141890645997,0.276037197166088
868,0.25491576985844167,0.22457320361743632,0.24450378165694137,0.27600724486718065
869,0.24368050777102804,0.2855120587271474,0.24798840196486135,0.2228190315369631
870,0.26927965114886504,0.24204358266971185,0.25671911384828994,0.23195765233313315
871,0.22227151140003337,0.28670065013448653,0.2687563270654467,0.22227151140003337
872,0.24958380963190333,0.22459757429554866,0.24978141890645997,0.276037197166088
873,0.22227151140003337,0.28670065013448653,0.2687563270654467,0.22227151140003337
874,0.2496954367227103,0.2478443453489495,0.27470048157743304,0.22775973635090707
875,0.24958380963190333,0.22459757429554866,0.24978141890645997,0.276037197166088
876,0.2764223240926711,0.2461650096075887,0.24969487650034067,0.22771778979939955
877,0.22227151140003337,0.28670065013448653,0.2687563270654467,0.22227151140003337
878,0.2496954367227103,0.2478443453489495,0.27470048157743304,0.22775973635090707
879,0.24958380963190333,0.22459757429554866,0.24978141890645997,0.276037197166088
880,0.27240127288181515,0.22266736720773445,0.22945025038643385,0.2754811095240166
881,0.22227151140003337,0.28670065013448653,0.2687563270654467,0.22227151140003337
882,0.22227151140003337,0.28670065013448653,0.2687563270654467,0.22227151140003337
883,0.24958380963190333,0.22459757429554866,0.24978141890645997,0.276037197166088
884,0.24958380963190333,0.22459757429554866,0.24978141890645997,0.276037197166088
885,0.22384037587458464,0.2867872019292172,0.26703380945467803,0.22233861274152023
886,0.24958380963190333,0.22459757429554866,0.24978141890645997,0.276037197166088
887,0.22227151140003337,0.28670065013448653,0.2687563270654467,0.22227151140003337
888,0.22227151140003337,0.28670065013448653,0.2687563270654467,0.22227151140003337
889,0.24958380963190333,0.22459757429554866,0.24978141890645997,0.276037197166088
890,0.24292283574736154,0.25468507578998073,0.27466323445544255,0.22772885400721524
891,0.2759827874654471,0.22282065518759078,0.2338162697601553,0.2673802875868069
892,0.22227151140003337,0.28670065013448653,0.2687563270654467,0.22227151140003337
893,0.24958380963190333,0.22459757429554866,0.24978141890645997,0.276037197166088
894,0.24976552497064355,0.24357272518764644,0.2747775886151622,0.23188416122654784
895,0.2496954367227103,0.2478443453489495,0.27470048157743304,0.22775973635090707
896,0.24973808021879731,0.2247364006066489,0.25959378019870055,0.26593173897585326
897,0.24958380963190333,0.22459757429554866,0.24978141890645997,0.276037197166088
898,0.24958380963190333,0.22459757429554866,0.24978141890645997,0.276037197166088
899,0.22227151140003337,0.28670065013448653,0.2687563270654467,0.22227151140003337
900,0.24958380963190333,0.22459757429554866,0.24978141890645997,0.276037197166088
901,0.2292504711286587,0.2714005244888186,0.2741551378540549,0.22519386652846785
902,0.2764223240926711,0.2461650096075887,0.24969487650034067,0.22771778979939955
903,0.22227151140003337,0.28670065013448653,0.2687563270654467,0.22227151140003337
904,0.2764223240926711,0.2461650096075887,0.24969487650034067,0.22771778979939955
905,0.22227151140003337,0.28670065013448653,0.2687563270654467,0.22227151140003337
906,0.24958380963190333,0.22459757429554866,0.24978141890645997,0.276037197166088
907,0.2306621982024805,0.2852415355675873,0.2614883561030077,0.2226079101269245
908,0.2756358381517024,0.22254053817697775,0.2264994253397732,0.27532419833154664
909,0.25850361612021977,0.22302150323001926,0.24255563874215877,0.27591924190760214
910,0.22227151140003337,0.28670065013448653,0.2687563270654467,0.22227151140003337
911,0.2764223240926711,0.2461650096075887,0.24969487650034067,0.22771778979939955
912,0.22227151140003337,0.28670065013448653,0.2687563270654467,0.22227151140003337
913,0.22680395398311315,0.2793681010290941,0.27128607894139994,0.22254186604639276
914,0.24958380963190333,0.22459757429554866,0.24978141890645997,0.276037197166088
915,0.22227151140003337,0.28670065013448653,0.2687563270654467,0.22227151140003337
916,0.27310225409575006,0.24623653057826325,0.2528772642253028,0.2277839511006839
917,0.2686105331336013,0.22279506403807978,0.2329553084817064,0.27563909434661255
918,0.24958380963190333,0.22459757429554866,0.24978141890645997,0.276037197166088
919,0.24671842605155303,0.28551653147963335,0.24494252031088815,0.22282252215792553
920,0.24972282926461628,0.2247226764499426,0.2576696548611619,0.2678848394242792
921,0.24958380963190333,0.22459757429554866,0.24978141890645997,0.276037197166088
922,0.24958380963190333,0.22459757429554866,0.24978141890645997,0.276037197166088
923,0.22227151140003337,0.28670065013448653,0.2687563270654467,0.22227151140003337
924,0.22227151140003337,0.28670065013448653,0.2687563270654467,0.22227151140003337
925,0.22227151140003337,0.28670065013448653,0.2687563270654467,0.22227151140003337
926,0.2764223240926711,0.2461650096075887,0.24969487650034067,0.22771778979939955
927,0.22227151140003337,0.28670065013448653,0.2687563270654467,0.22227151140003337
928,0.24976552497064355,0.24357272518764644,0.2747775886151622,0.23188416122654784
929,0.27649198822892346,0.24191539794815328,0.2497578047676401,0.23183480905528323
930,0.24958380963190333,0.22459757429554866,0.24978141890645997,0.276037197166088
931,0.24958380963190333,0.22459757429554866,0.24978141890645997,0.276037197166088
932,0.27055697202169154,0.22273234434830128,0.2311491852506253,0.27556149837938193
933,0.24958380963190333,0.22459757429554866,0.24978141890645997,0.276037197166088
934,0.25850361612021977,0.22302150323001926,0.24255563874215877,0.27591924190760214
935,0.24976552497064355,0.24357272518764644,0.2747775886151622,0.23188416122654784
936,0.2686105331336013,0.22279506403807978,0.2329553084817064,0.27563909434661255
937,0.22367094972152926,0.2851186955091336,0.2688562244798326,0.22235413028950457
938,0.24958380963190333,0.22459757429554866,0.24978141890645997,0.276037197166088
939,0.24972282926461628,0.2247226764499426,0.2576696548611619,0.2678848394242792
940,0.22367094972152926,0.2851186955091336,0.2688562244798326,0.22235413028950457
941,0.25850361612021977,0.22302150323001926,0.24255563874215877,0.27591924190760214
942,0.24976552497064355,0.24357272518764644,0.2747775886151622,0.23188416122654784
943,0.27649198822892346,0.24191539794815328,0.2497578047676401,0.23183480905528323
944,0.24958380963190333,0.22459757429554866,0.24978141890645997,0.276037197166088
945,0.2496954367227103,0.2478443453489495,0.27470048157743304,0.22775973635090707
946,0.2292504711286587,0.2714005244888186,0.2741551378540549,0.22519386652846785
947,0.22227151140003337,0.28670065013448653,0.2687563270654467,0.22227151140003337
948,0.24958380963190333,0.22459757429554866,0.24978141890645997,0.276037197166088
949,0.22227151140003337,0.28670065013448653,0.2687563270654467,0.22227151140003337
950,0.2759827874654471,0.22282065518759078,0.2338162697601553,0.2673802875868069
951,0.22227151140003337,0.28670065013448653,0.2687563270654467,0.22227151140003337
952,0.22367094972152926,0.2851186955091336,0.2688562244798326,0.22235413028950457
953,0.22227151140003337,0.28670065013448653,0.2687563270654467,0.22227151140003337
954,0.2496954367227103,0.2478443453489495,0.27470048157743304,0.22775973635090707
955,0.24958380963190333,0.22459757429554866,0.24978141890645997,0.276037197166088
956,0.24958380963190333,0.22459757429554866,0.24978141890645997,0.276037197166088
957,0.24194968366543873,0.28549982092983456,0.24974101447714078,0.22280948092758585
958,0.2496954367227103,0.2478443453489495,0.27470048157743304,0.22775973635090707
959,0.2764223240926711,0.2461650096075887,0.24969487650034067,0.22771778979939955
960,0.24973808021879731,0.2247364006066489,0.25959378019870055,0.26593173897585326
961,0.2764223240926711,0.2461650096075887,0.24969487650034067,0.22771778979939955
962,0.24958380963190333,0.22459757429554866,0.24978141890645997,0.276037197166088
963,0.2764223240926711,0.2461650096075887,0.24969487650034067,0.22771778979939955
964,0.22227151140003337,0.28670065013448653,0.2687563270654467,0.22227151140003337
965,0.24958380963190333,0.22459757429554866,0.24978141890645997,0.276037197166088
966,0.24958380963190333,0.22459757429554866,0.24978141890645997,0.276037197166088
967,0.2496954367227103,0.2478443453489495,0.27470048157743304,0.22775973635090707
968,0.2390860761497665,0.25864514694776974,0.2745958186805001,0.22767295822196357
969,0.22227151140003337,0.28670065013448653,0.2687563270654467,0.22227151140003337
970,0.251267088896921,0.2245953318658973,0.24810313808481183,0.2760344411523699
971,0.24958380963190333,0.22459757429554866,0.24978141890645997,0.276037197166088
972,0.22227151140003337,0.28670065013448653,0.2687563270654467,0.22227151140003337
973,0.24958380963190333,0.22459757429554866,0.24978141890645997,0.276037197166088
974,0.24958380963190333,0.22459757429554866,0.24978141890645997,0.276037197166088
975,0.22227151140003337,0.28670065013448653,0.2687563270654467,0.22227151140003337
976,0.27240127288181515,0.22266736720773445,0.22945025038643385,0.2754811095240166
977,0.2496954367227103,0.2478443453489495,0.27470048157743304,0.22775973635090707
978,0.2756358381517024,0.22254053817697775,0.2264994253397732,0.27532419833154664
979,0.2496954367227103,0.2478443453489495,0.27470048157743304,0.22775973635090707
980,0.2353326953614133,0.27790728234081064,0.2639126391014638,0.22284738319631214
981,0.24671842605155303,0.28551653147963335,0.24494252031088815,0.22282252215792553
982,0.22227151140003337,0.28670065013448653,0.2687563270654467,0.22227151140003337
983,0.2686105331336013,0.22279506403807978,0.2329553084817064,0.27563909434661255
984,0.22227151140003337,0.28670065013448653,0.2687563270654467,0.22227151140003337
985,0.22227151140003337,0.28670065013448653,0.2687563270654467,0.22227151140003337
986,0.22227151140003337,0.28670065013448653,0.2687563270654467,0.22227151140003337
987,0.2516922249568515,0.26558544591802663,0.2548141914947756,0.22790813763034623
988,0.2756358381517024,0.22254053817697775,0.2264994253397732,0.27532419833154664
989,0.22227151140003337,0.28670065013448653,0.2687563270654467,0.22227151140003337
990,0.22227151140003337,0.28670065013448653,0.2687563270654467,0.22227151140003337
991,0.24958380963190333,0.22459757429554866,0.24978141890645997,0.276037197166088
992,0.22227151140003337,0.28670065013448653,0.2687563270654467,0.22227151140003337
993,0.22227151140003337,0.28670065013448653,0.2687563270654467,0.22227151140003337
994,0.22227151140003337,0.28670065013448653,0.2687563270654467,0.22227151140003337
995,0.2764223240926711,0.2461650096075887,0.24969487650034067,0.22771778979939955
996,0.24958380963190333,0.22459757429554866,0.24978141890645997,0.276037197166088
997,0.22227151140003337,0.28670065013448653,0.2687563270654467,0.22227151140003337
998,0.22227151140003337,0.28670065013448653,0.2687563270654467,0.22227151140003337
999,0.24671842605155303,0.28551653147963335,0.24494252031088815,0.22282252215792553
1000,0.2496954367227103,0.2478443453489495,0.27470048157743304,0.22775973635090707
1001,0.2649762004114643,0.24632831788390322,0.26082662169506143,0.22786886000957104
1002,0.24958380963190333,0.22459757429554866,0.24978141890645997,0.276037197166088
1003,0.2670974752288366,0.24631594729841516,0.25872916101638715,0.22785741645636115
1004,0.27055697202169154,0.22273234434830128,0.2311491852506253,0.27556149837938193
1005,0.22227151140003337,0.28670065013448653,0.2687563270654467,0.22227151140003337
1006,0.22227151140003337,0.28670065013448653,0.2687563270654467,0.22227151140003337
1007,0.22227151140003337,0.28670065013448653,0.2687563270654467,0.22227151140003337
1008,0.27649198822892346,0.24191539794815328,0.2497578047676401,0.23183480905528323
1009,0.2496954367227103,0.2478443453489495,0.27470048157743304,0.22775973635090707
1010,0.22227151140003337,0.28670065013448653,0.2687563270654467,0.22227151140003337
1011,0.2764223240926711,0.2461650096075887,0.24969487650034067,0.22771778979939955
1012,0.24958380963190333,0.22459757429554866,0.24978141890645997,0.276037197166088
1013,0.24958380963190333,0.22459757429554866,0.24978141890645997,0.276037197166088
1014,0.22227151140003337,0.28670065013448653,0.2687563270654467,0.22227151140003337
1015,0.24958380963190333,0.22459757429554866,0.24978141890645997,0.276037197166088
1016,0.2764223240926711,0.2461650096075887,0.24969487650034067,0.22771778979939955
1017,0.22227151140003337,0.28670065013448653,0.2687563270654467,0.22227151140003337
1018,0.22227151140003337,0.28670065013448653,0.2687563270654467,0.22227151140003337
1019,0.24958380963190333,0.22459757429554866,0.24978141890645997,0.276037197166088
1020,0.2496954367227103,0.2478443453489495,0.27470048157743304,0.22775973635090707
1021,0.2496954367227103,0.2478443453489495,0.27470048157743304,0.22775973635090707
1022,0.24958380963190333,0.22459757429554866,0.24978141890645997,0.276037197166088
1023,0.22227151140003337,0.28670065013448653,0.2687563270654467,0.22227151140003337
1024,0.24958380963190333,0.22459757429554866,0.24978141890645997,0.276037197166088
1025,0.22227151140003337,0.28670065013448653,0.2687563270654467,0.22227151140003337
1026,0.22912941785406846,0.2742043441954423,0.2740103731474893,0.22265586480299995
1027,0.27591644091312084,0.2227670888677687,0.23217190276671734,0.2691445674523932
1028,0.22227151140003337,0.28670065013448653,0.2687563270654467,0.22227151140003337
1029,0.22227151140003337,0.28670065013448653,0.2687563270654467,0.22227151140003337
1030,0.22227151140003337,0.28670065013448653,0.2687563270654467,0.22227151140003337
1031,0.23133784794858225,0.26683651310152184,0.27435355032843534,0.22747208862146057
1032,0.24671842605155303,0.28551653147963335,0.24494252031088815,0.22282252215792553
1033,0.25662894851913526,0.2655761118425382,0.24989481190383026,0.22790012773449628
1034,0.24976552497064355,0.24357272518764644,0.2747775886151622,0.23188416122654784
1035,0.22227151140003337,0.28670065013448653,0.2687563270654467,0.22227151140003337
1036,0.23133784794858225,0.26683651310152184,0.27435355032843534,0.22747208862146057
1037,0.2756358381517024,0.22254053817697775,0.2264994253397732,0.27532419833154664
1038,0.24989926473259494,0.23738924308673573,0.27174866328989533,0.24096282889077394
1039,0.22227151140003337,0.28670065013448653,0.2687563270654467,0.22227151140003337
1040,0.27055697202169154,0.22273234434830128,0.2311491852506253,0.27556149837938193
1041,0.2496954367227103,0.2478443453489495,0.27470048157743304,0.22775973635090707
1042,0.22227151140003337,0.28670065013448653,0.2687563270654467,0.22227151140003337
1043,0.2712777384514055,0.24201719612816364,0.25477270010446706,0.23193236531596376
1044,0.2756358381517024,0.22254053817697775,0.2264994253397732,0.27532419833154664
1045,0.24972282926461628,0.2247226764499426,0.2576696548611619,0.2678848394242792
1046,0.24958380963190333,0.22459757429554866,0.24978141890645997,0.276037197166088
1047,0.22681571995332445,0.2767465803792093,0.2738842887563536,0.22255341091111264
1048,0.24976552497064355,0.24357272518764644,0.2747775886151622,0.23188416122654784
1049,0.27055697202169154,0.22273234434830128,0.2311491852506253,0.27556149837938193
1050,0.2496954367227103,0.2478443453489495,0.27470048157743304,0.22775973635090707
1051,0.2760473864467348,0.2228728105682476,0.23560302121672097,0.26547678176829653
1052,0.24976552497064355,0.24357272518764644,0.2747775886151622,0.23188416122654784
1053,0.22227151140003337,0.28670065013448653,0.2687563270654467,0.22227151140003337
1054,0.2764223240926711,0.2461650096075887,0.24969487650034067,0.22771778979939955
1055,0.24671842605155303,0.28551653147963335,0.24494252031088815,0.22282252215792553
1056,0.24958380963190333,0.22459757429554866,0.24978141890645997,0.276037197166088
1057,0.24958380963190333,0.22459757429554866,0.24978141890645997,0.276037197166088
1058,0.2496954367227103,0.2478443453489495,0.27470048157743304,0.22775973635090707
1059,0.22227151140003337,0.28670065013448653,0.2687563270654467,0.22227151140003337
1060,0.25897629437792313,0.22901974654896984,0.2584373670732894,0.2535665919998177
1061,0.2306621982024805,0.2852415355675873,0.2614883561030077,0.2226079101269245
1062,0.2756358381517024,0.22254053817697775,0.2264994253397732,0.27532419833154664
1063,0.22681571995332445,0.2767465803792093,0.2738842887563536,0.22255341091111264
1064,0.24958380963190333,0.22459757429554866,0.24978141890645997,0.276037197166088
1065,0.2712093593280849,0.246268569917037,0.25470848129322726,0.2278135894616509
1066,0.2756358381517024,0.22254053817697775,0.2264994253397732,0.27532419833154664
1067,0.24958380963190333,0.22459757429554866,0.24978141890645997,0.276037197166088
1068,0.22227151140003337,0.28670065013448653,0.2687563270654467,0.22227151140003337
1069,0.25850361612021977,0.22302150323001926,0.24255563874215877,0.27591924190760214
1070,0.24958380963190333,0.22459757429554866,0.24978141890645997,0.276037197166088
1071,0.25149189621562446,0.2436108477590481,0.2729768016527123,0.23192045437261521
1072,0.24958380963190333,0.22459757429554866,0.24978141890645997,0.276037197166088
1073,0.24989926473259494,0.23738924308673573,0.27174866328989533,0.24096282889077394
1074,0.22227151140003337,0.28670065013448653,0.2687563270654467,0.22227151140003337
1075,0.24958380963190333,0.22459757429554866,0.24978141890645997,0.276037197166088
1076,0.2686105331336013,0.22279506403807978,0.2329553084817064,0.27563909434661255
1077,0.22227151140003337,0.28670065013448653,0.2687563270654467,0.22227151140003337
1078,0.24958380963190333,0.22459757429554866,0.24978141890645997,0.276037197166088
1079,0.22912941785406846,0.2742043441954423,0.2740103731474893,0.22265586480299995
1080,0.2756358381517024,0.22254053817697775,0.2264994253397732,0.27532419833154664
1081,0.2686105331336013,0.22279506403807978,0.2329553084817064,0.27563909434661255
1082,0.22227151140003337,0.28670065013448653,0.2687563270654467,0.22227151140003337
1083,0.22227151140003337,0.28670065013448653,0.2687563270654467,0.22227151140003337
1084,0.2756358381517024,0.22254053817697775,0.2264994253397732,0.27532419833154664
1085,0.24958380963190333,0.22459757429554866,0.24978141890645997,0.276037197166088
1086,0.2756358381517024,0.22254053817697775,0.2264994253397732,0.27532419833154664
1087,0.24958380963190333,0.22459757429554866,0.24978141890645997,0.276037197166088
1088,0.24958380963190333,0.22459757429554866,0.24978141890645997,0.276037197166088
1089,0.23133784794858225,0.26683651310152184,0.27435355032843534,0.22747208862146057
1090,0.24958380963190333,0.22459757429554866,0.24978141890645997,0.276037197166088
1091,0.27240127288181515,0.22266736720773445,0.22945025038643385,0.2754811095240166
1092,0.24671842605155303,0.28551653147963335,0.24494252031088815,0.22282252215792553
1093,0.2496954367227103,0.2478443453489495,0.27470048157743304,0.22775973635090707
1094,0.25850361612021977,0.22302150323001926,0.24255563874215877,0.27591924190760214
1095,0.2649762004114643,0.24632831788390322,0.26082662169506143,0.22786886000957104
1096,0.2292504711286587,0.2714005244888186,0.2741551378540549,0.22519386652846785
1097,0.24958380963190333,0.22459757429554866,0.24978141890645997,0.276037197166088
1098,0.22227151140003337,0.28670065013448653,0.2687563270654467,0.22227151140003337
1099,0.2686105331336013,0.22279506403807978,0.2329553084817064,0.27563909434661255
1100,0.22227151140003337,0.28670065013448653,0.2687563270654467,0.22227151140003337
1101,0.24958380963190333,0.22459757429554866,0.24978141890645997,0.276037197166088
1102,0.2496954367227103,0.2478443453489495,0.27470048157743304,0.22775973635090707
1103,0.24958380963190333,0.22459757429554866,0.24978141890645997,0.276037197166088
1104,0.258841675878463,0.2463168241130093,0.26698327244468323,0.22785822756384452
1105,0.24976552497064355,0.24357272518764644,0.2747775886151622,0.23188416122654784
1106,0.2670974752288366,0.24631594729841516,0.25872916101638715,0.22785741645636115
1107,0.24958380963190333,0.22459757429554866,0.24978141890645997,0.276037197166088
1108,0.2496954367227103,0.2478443453489495,0.27470048157743304,0.22775973635090707
1109,0.2764223240926711,0.2461650096075887,0.24969487650034067,0.22771778979939955
1110,0.27649198822892346,0.24191539794815328,0.2497578047676401,0.23183480905528323
1111,0.24958380963190333,0.22459757429554866,0.24978141890645997,0.276037197166088
1112,0.2756358381517024,0.22254053817697775,0.2264994253397732,0.27532419833154664
1113,0.27055697202169154,0.22273234434830128,0.2311491852506253,0.27556149837938193
1114,0.2351215148741415,0.2628034726994304,0.2744898855280228,0.22758512689840524
1115,0.22227151140003337,0.28670065013448653,0.2687563270654467,0.22227151140003337
1116,0.24958380963190333,0.22459757429554866,0.24978141890645997,0.276037197166088
1117,0.22227151140003337,0.28670065013448653,0.2687563270654467,0.22227151140003337
1118,0.22227151140003337,0.28670065013448653,0.2687563270654467,0.22227151140003337
1119,0.2543734920802728,0.27018242540268733,0.24977312431298168,0.22567095820405808
1120,0.24958380963190333,0.22459757429554866,0.24978141890645997,0.276037197166088
1121,0.22227151140003337,0.28670065013448653,0.2687563270654467,0.22227151140003337
1122,0.22227151140003337,0.28670065013448653,0.2687563270654467,0.22227151140003337
1123,0.24671842605155303,0.28551653147963335,0.24494252031088815,0.22282252215792553
1124,0.22227151140003337,0.28670065013448653,0.2687563270654467,0.22227151140003337
1125,0.24958380963190333,0.22459757429554866,0.24978141890645997,0.276037197166088
1126,0.22227151140003337,0.28670065013448653,0.2687563270654467,0.22227151140003337
1127,0.24194968366543873,0.28549982092983456,0.24974101447714078,0.22280948092758585
1128,0.22227151140003337,0.28670065013448653,0.2687563270654467,0.22227151140003337
1129,0.22227151140003337,0.28670065013448653,0.2687563270654467,0.22227151140003337
1130,0.22227151140003337,0.28670065013448653,0.2687563270654467,0.22227151140003337
1131,0.24958380963190333,0.22459757429554866,0.24978141890645997,0.276037197166088
1132,0.25890694956898636,0.24206462926270614,0.2670505992514709,0.23197782191683675
1133,0.24976552497064355,0.24357272518764644,0.2747775886151622,0.23188416122654784
1134,0.22681571995332445,0.2767465803792093,0.2738842887563536,0.22255341091111264
1135,0.22227151140003337,0.28670065013448653,0.2687563270654467,0.22227151140003337
1136,0.23133784794858225,0.26683651310152184,0.27435355032843534,0.22747208862146057
1137,0.24671842605155303,0.28551653147963335,0.24494252031088815,0.22282252215792553
1138,0.2496954367227103,0.2478443453489495,0.27470048157743304,0.22775973635090707
1139,0.2672471031970974,0.2358649464441707,0.25588346719897415,0.24100448315975778
1140,0.24973808021879731,0.2247364006066489,0.25959378019870055,0.26593173897585326
1141,0.2756358381517024,0.22254053817697775,0.2264994253397732,0.27532419833154664
1142,0.2496954367227103,0.2478443453489495,0.27470048157743304,0.22775973635090707
1143,0.2756358381517024,0.22254053817697775,0.2264994253397732,0.27532419833154664
1144,0.2496954367227103,0.2478443453489495,0.27470048157743304,0.22775973635090707
1145,0.2496954367227103,0.2478443453489495,0.27470048157743304,0.22775973635090707
1146,0.2496954367227103,0.2478443453489495,0.27470048157743304,0.22775973635090707
1147,0.24958380963190333,0.22459757429554866,0.24978141890645997,0.276037197166088
1148,0.24958380963190333,0.22459757429554866,0.24978141890645997,0.276037197166088
1149,0.22227151140003337,0.28670065013448653,0.2687563270654467,0.22227151140003337
1150,0.2686105331336013,0.22279506403807978,0.2329553084817064,0.27563909434661255
1151,0.2665502291945223,0.22285482973899404,0.2348819053884322,0.2757130356780515
1152,0.27266025587741133,0.22287906615161568,0.23518082088590264,0.26927985708507035
1153,0.2496954367227103,0.2478443453489495,0.27470048157743304,0.22775973635090707
1154,0.22227151140003337,0.28670065013448653,0.2687563270654467,0.22227151140003337
1155,0.22227151140003337,0.28670065013448653,0.2687563270654467,0.22227151140003337
1156,0.25662894851913526,0.2655761118425382,0.24989481190383026,0.22790012773449628
1157,0.24964839435044703,0.22465569333437121,0.25263047797959803,0.2730654343355838
1158,0.22227151140003337,0.28670065013448653,0.2687563270654467,0.22227151140003337
1159,0.24958380963190333,0.22459757429554866,0.24978141890645997,0.276037197166088
1160,0.25850361612021977,0.22302150323001926,0.24255563874215877,0.27591924190760214
1161,0.24194968366543873,0.28549982092983456,0.24974101447714078,0.22280948092758585
1162,0.22227151140003337,0.28670065013448653,0.2687563270654467,0.22227151140003337
1163,0.24671842605155303,0.28551653147963335,0.24494252031088815,0.22282252215792553
1164,0.22227151140003337,0.28670065013448653,0.2687563270654467,0.22227151140003337
1165,0.22227151140003337,0.28670065013448653,0.2687563270654467,0.22227151140003337
1166,0.2496954367227103,0.2478443453489495,0.27470048157743304,0.22775973635090707
1167,0.22227151140003337,0.28670065013448653,0.2687563270654467,0.22227151140003337
1168,0.2756358381517024,0.22254053817697775,0.2264994253397732,0.27532419833154664
1169,0.24958380963190333,0.22459757429554866,0.24978141890645997,0.276037197166088
1170,0.27577657016555096,0.22265416120332512,0.2291405938810971,0.2724286747500267
1171,0.24958380963190333,0.22459757429554866,0.24978141890645997,0.276037197166088
1172,0.24958380963190333,0.22459757429554866,0.24978141890645997,0.276037197166088
1173,0.26282835950317324,0.2593456232130386,0.24991106603656116,0.22791495124722694
1174,0.2756358381517024,0.22254053817697775,0.2264994253397732,0.27532419833154664
1175,0.23966816395740898,0.28384470740416035,0.2536574631976513,0.22282966544077942
1176,0.22227151140003337,0.28670065013448653,0.2687563270654467,0.22227151140003337
1177,0.2756358381517024,0.22254053817697775,0.2264994253397732,0.27532419833154664
1178,0.24958380963190333,0.22459757429554866,0.24978141890645997,0.276037197166088
1179,0.24958380963190333,0.22459757429554866,0.24978141890645997,0.276037197166088
1180,0.2764223240926711,0.2461650096075887,0.24969487650034067,0.22771778979939955
1181,0.2764223240926711,0.2461650096075887,0.24969487650034067,0.22771778979939955
1182,0.2496954367227103,0.2478443453489495,0.27470048157743304,0.22775973635090707
1183,0.24964839435044703,0.22465569333437121,0.25263047797959803,0.2730654343355838
1184,0.24958380963190333,0.22459757429554866,0.24978141890645997,0.276037197166088
1185,0.2764223240926711,0.2461650096075887,0.24969487650034067,0.22771778979939955
1186,0.24671842605155303,0.28551653147963335,0.24494252031088815,0.22282252215792553
1187,0.2670974752288366,0.24631594729841516,0.25872916101638715,0.22785741645636115
1188,0.22227151140003337,0.28670065013448653,0.2687563270654467,0.22227151140003337
1189,0.22227151140003337,0.28670065013448653,0.2687563270654467,0.22227151140003337
1190,0.2756358381517024,0.22254053817697775,0.2264994253397732,0.27532419833154664
1191,0.22227151140003337,0.28670065013448653,0.2687563270654467,0.22227151140003337
1192,0.24292283574736154,0.25468507578998073,0.27466323445544255,0.22772885400721524
1193,0.23133784794858225,0.26683651310152184,0.27435355032843534,0.22747208862146057
1194,0.2496954367227103,0.2478443453489495,0.27470048157743304,0.22775973635090707
1195,0.22227151140003337,0.28670065013448653,0.2687563270654467,0.22227151140003337
1196,0.24964839435044703,0.22465569333437121,0.25263047797959803,0.2730654343355838
1197,0.22227151140003337,0.28670065013448653,0.2687563270654467,0.22227151140003337
1198,0.27317110150798385,0.241985701952141,0.2529410130409701,0.23190218349890507
1199,0.2517404759162937,0.2755795326412122,0.24959433244743506,0.22308565899505892
1200,0.22227151140003337,0.28670065013448653,0.2687563270654467,0.22227151140003337
1201,0.22227151140003337,0.28670065013448653,0.2687563270654467,0.22227151140003337
1202,0.22227151140003337,0.28670065013448653,0.2687563270654467,0.22227151140003337
1203,0.22227151140003337,0.28670065013448653,0.2687563270654467,0.22227151140003337
1204,0.22227151140003337,0.28670065013448653,0.2687563270654467,0.22227151140003337
1205,0.27649198822892346,0.24191539794815328,0.2497578047676401,0.23183480905528323
1206,0.24976552497064355,0.24357272518764644,0.2747775886151622,0.23188416122654784
1207,0.22227151140003337,0.28670065013448653,0.2687563270654467,0.22227151140003337
1208,0.2756358381517024,0.22254053817697775,0.2264994253397732,0.27532419833154664
1209,0.24973808021879731,0.2247364006066489,0.25959378019870055,0.26593173897585326
1210,0.2764223240926711,0.2461650096075887,0.24969487650034067,0.22771778979939955
1211,0.2765487086363895,0.23569615097861057,0.24692313077228814,0.24083200961271184
1212,0.24958380963190333,0.22459757429554866,0.24978141890645997,0.276037197166088
1213,0.22227151140003337,0.28670065013448653,0.2687563270654467,0.22227151140003337
1214,0.24958380963190333,0.22459757429554866,0.24978141890645997,0.276037197166088
1215,0.2764223240926711,0.2461650096075887,0.24969487650034067,0.22771778979939955
1216,0.2496954367227103,0.2478443453489495,0.27470048157743304,0.22775973635090707
1217,0.2686105331336013,0.22279506403807978,0.2329553084817064,0.27563909434661255
1218,0.2671648305950133,0.2420637673673664,0.25879440610103616,0.2319769959365841
1219,0.22227151140003337,0.28670065013448653,0.2687563270654467,0.22227151140003337
1220,0.24958380963190333,0.22459757429554866,0.24978141890645997,0.276037197166088
1221,0.27240127288181515,0.22266736720773445,0.22945025038643385,0.2754811095240166
1222,0.2496954367227103,0.2478443453489495,0.27470048157743304,0.22775973635090707
1223,0.22227151140003337,0.28670065013448653,0.2687563270654467,0.22227151140003337
1224,0.22227151140003337,0.28670065013448653,0.2687563270654467,0.22227151140003337
1225,0.22227151140003337,0.28670065013448653,0.2687563270654467,0.22227151140003337
1226,0.2756358381517024,0.22254053817697775,0.2264994253397732,0.27532419833154664
1227,0.22227151140003337,0.28670065013448653,0.2687563270654467,0.22227151140003337
1228,0.24958380963190333,0.22459757429554866,0.24978141890645997,0.276037197166088
1229,0.22227151140003337,0.28670065013448653,0.2687563270654467,0.22227151140003337
1230,0.22227151140003337,0.28670065013448653,0.2687563270654467,0.22227151140003337
1231,0.24958380963190333,0.22459757429554866,0.24978141890645997,0.276037197166088
1232,0.22227151140003337,0.28670065013448653,0.2687563270654467,0.22227151140003337
1233,0.22227151140003337,0.28670065013448653,0.2687563270654467,0.22227151140003337
1234,0.24958380963190333,0.22459757429554866,0.24978141890645997,0.276037197166088
1235,0.22227151140003337,0.28670065013448653,0.2687563270654467,0.22227151140003337
1236,0.22227151140003337,0.28670065013448653,0.2687563270654467,0.22227151140003337
1237,0.24976552497064355,0.24357272518764644,0.2747775886151622,0.23188416122654784
1238,0.25149189621562446,0.2436108477590481,0.2729768016527123,0.23192045437261521
1239,0.24976552497064355,0.24357272518764644,0.2747775886151622,0.23188416122654784
1240,0.24958380963190333,0.22459757429554866,0.24978141890645997,0.276037197166088
1241,0.24958380963190333,0.22459757429554866,0.24978141890645997,0.276037197166088
1242,0.22227151140003337,0.28670065013448653,0.2687563270654467,0.22227151140003337
1243,0.2496954367227103,0.2478443453489495,0.27470048157743304,0.22775973635090707
1244,0.24958380963190333,0.22459757429554866,0.24978141890645997,0.276037197166088
1245,0.22227151140003337,0.28670065013448653,0.2687563270654467,0.22227151140003337
1246,0.22227151140003337,0.28670065013448653,0.2687563270654467,0.22227151140003337
1247,0.27649198822892346,0.24191539794815328,0.2497578047676401,0.23183480905528323
1248,0.22227151140003337,0.28670065013448653,0.2687563270654467,0.22227151140003337
1249,0.24958380963190333,0.22459757429554866,0.24978141890645997,0.276037197166088
1250,0.251267088896921,0.2245953318658973,0.24810313808481183,0.2760344411523699
1251,0.2764223240926711,0.2461650096075887,0.24969487650034067,0.22771778979939955
1252,0.27055697202169154,0.22273234434830128,0.2311491852506253,0.27556149837938193
1253,0.24958380963190333,0.22459757429554866,0.24978141890645997,0.276037197166088
1254,0.22681571995332445,0.2767465803792093,0.2738842887563536,0.22255341091111264
1255,0.23133784794858225,0.26683651310152184,0.27435355032843534,0.22747208862146057
1256,0.24671842605155303,0.28551653147963335,0.24494252031088815,0.22282252215792553
1257,0.22227151140003337,0.28670065013448653,0.2687563270654467,0.22227151140003337
1258,0.27649198822892346,0.24191539794815328,0.2497578047676401,0.23183480905528323
1259,0.24958380963190333,0.22459757429554866,0.24978141890645997,0.276037197166088
1260,0.2496954367227103,0.2478443453489495,0.27470048157743304,0.22775973635090707
1261,0.22227151140003337,0.28670065013448653,0.2687563270654467,0.22227151140003337
1262,0.22227151140003337,0.28670065013448653,0.2687563270654467,0.22227151140003337
1263,0.24958380963190333,0.22459757429554866,0.24978141890645997,0.276037197166088
1264,0.24292283574736154,0.25468507578998073,0.27466323445544255,0.22772885400721524
1265,0.22227151140003337,0.28670065013448653,0.2687563270654467,0.22227151140003337
1266,0.2496954367227103,0.2478443453489495,0.27470048157743304,0.22775973635090707
1267,0.25662894851913526,0.2655761118425382,0.24989481190383026,0.22790012773449628
1268,0.22227151140003337,0.28670065013448653,0.2687563270654467,0.22227151140003337
1269,0.22227151140003337,0.28670065013448653,0.2687563270654467,0.22227151140003337
1270,0.2764223240926711,0.2461650096075887,0.24969487650034067,0.22771778979939955
1271,0.24958380963190333,0.22459757429554866,0.24978141890645997,0.276037197166088
1272,0.22680395398311315,0.2793681010290941,0.27128607894139994,0.22254186604639276
1273,0.2496954367227103,0.2478443453489495,0.27470048157743304,0.22775973635090707
1274,0.24958380963190333,0.22459757429554866,0.24978141890645997,0.276037197166088
1275,0.24958380963190333,0.22459757429554866,0.24978141890645997,0.276037197166088
1276,0.2496954367227103,0.2478443453489495,0.27470048157743304,0.22775973635090707
1277,0.22227151140003337,0.28670065013448653,0.2687563270654467,0.22227151140003337
1278,0.24671842605155303,0.28551653147963335,0.24494252031088815,0.22282252215792553
1279,0.24194968366543873,0.28549982092983456,0.24974101447714078,0.22280948092758585
1280,0.27649198822892346,0.24191539794815328,0.2497578047676401,0.23183480905528323
1281,0.23133784794858225,0.26683651310152184,0.27435355032843534,0.22747208862146057
1282,0.2496954367227103,0.2478443453489495,0.27470048157743304,0.22775973635090707
1283,0.24958380963190333,0.22459757429554866,0.24978141890645997,0.276037197166088
1284,0.24958380963190333,0.22459757429554866,0.24978141890645997,0.276037197166088
1285,0.25850361612021977,0.22302150323001926,0.24255563874215877,0.27591924190760214
1286,0.24671842605155303,0.28551653147963335,0.24494252031088815,0.22282252215792553
1287,0.2496954367227103,0.2478443453489495,0.27470048157743304,0.22775973635090707
1288,0.27649198822892346,0.24191539794815328,0.2497578047676401,0.23183480905528323
1289,0.22227151140003337,0.28670065013448653,0.2687563270654467,0.22227151140003337
1290,0.27134880674701245,0.2358087303263046,0.2518954208434218,0.24094704208326115
1291,0.22227151140003337,0.28670065013448653,0.2687563270654467,0.22227151140003337
1292,0.22227151140003337,0.28670065013448653,0.2687563270654467,0.22227151140003337
1293,0.2649951533371467,0.2572010744864829,0.24989943147019641,0.22790434070617388
1294,0.2543734920802728,0.27018242540268733,0.24977312431298168,0.22567095820405808
1295,0.27649198822892346,0.24191539794815328,0.2497578047676401,0.23183480905528323
1296,0.24976552497064355,0.24357272518764644,0.2747775886151622,0.23188416122654784
1297,0.26921176827130733,0.24629541320679824,0.25665439736452395,0.2278384211573704
1298,0.22367094972152926,0.2851186955091336,0.2688562244798326,0.22235413028950457
1299,0.24976552497064355,0.24357272518764644,0.2747775886151622,0.23188416122654784
1300,0.26927965114886504,0.24204358266971185,0.25671911384828994,0.23195765233313315
1301,0.24671842605155303,0.28551653147963335,0.24494252031088815,0.22282252215792553
1302,0.25491576985844167,0.22457320361743632,0.24450378165694137,0.27600724486718065
1303,0.2756358381517024,0.22254053817697775,0.2264994253397732,0.27532419833154664
1304,0.24958380963190333,0.22459757429554866,0.24978141890645997,0.276037197166088
1305,0.22227151140003337,0.28670065013448653,0.2687563270654467,0.22227151140003337
1306,0.24991780735486605,0.23052533148517196,0.26600601904899385,0.2535508421109681
1307,0.2764223240926711,0.2461650096075887,0.24969487650034067,0.22771778979939955
1308,0.24958380963190333,0.22459757429554866,0.24978141890645997,0.276037197166088
1309,0.2496954367227103,0.2478443453489495,0.27470048157743304,0.22775973635090707
1310,0.24671842605155303,0.28551653147963335,0.24494252031088815,0.22282252215792553
1311,0.22227151140003337,0.28670065013448653,0.2687563270654467,0.22227151140003337
1312,0.24671842605155303,0.28551653147963335,0.24494252031088815,0.22282252215792553
1313,0.24958380963190333,0.22459757429554866,0.24978141890645997,0.276037197166088
1314,0.22227151140003337,0.28670065013448653,0.2687563270654467,0.22227151140003337
1315,0.22680395398311315,0.2793681010290941,0.27128607894139994,0.22254186604639276
1316,0.24194968366543873,0.28549982092983456,0.24974101447714078,0.22280948092758585
1317,0.22227151140003337,0.28670065013448653,0.2687563270654467,0.22227151140003337
1318,0.22227151140003337,0.28670065013448653,0.2687563270654467,0.22227151140003337
1319,0.2496954367227103,0.2478443453489495,0.27470048157743304,0.22775973635090707
1320,0.27649198822892346,0.24191539794815328,0.2497578047676401,0.23183480905528323
1321,0.24958380963190333,0.22459757429554866,0.24978141890645997,0.276037197166088
1322,0.24958380963190333,0.22459757429554866,0.24978141890645997,0.276037197166088
1323,0.2764223240926711,0.2461650096075887,0.24969487650034067,0.22771778979939955
1324,0.22227151140003337,0.28670065013448653,0.2687563270654467,0.22227151140003337
1325,0.22227151140003337,0.28670065013448653,0.2687563270654467,0.22227151140003337
1326,0.24958380963190333,0.22459757429554866,0.24978141890645997,0.276037197166088
1327,0.22227151140003337,0.28670065013448653,0.2687563270654467,0.22227151140003337
1328,0.2496954367227103,0.2478443453489495,0.27470048157743304,0.22775973635090707
1329,0.22227151140003337,0.28670065013448653,0.2687563270654467,0.22227151140003337
1330,0.22367094972152926,0.2851186955091336,0.2688562244798326,0.22235413028950457
1331,0.2496954367227103,0.2478443453489495,0.27470048157743304,0.22775973635090707
1332,0.24671842605155303,0.28551653147963335,0.24494252031088815,0.22282252215792553
1333,0.22227151140003337,0.28670065013448653,0.2687563270654467,0.22227151140003337
1334,0.27649198822892346,0.24191539794815328,0.2497578047676401,0.23183480905528323
1335,0.22227151140003337,0.28670065013448653,0.2687563270654467,0.22227151140003337
1336,0.2764223240926711,0.2461650096075887,0.24969487650034067,0.22771778979939955
1337,0.24958380963190333,0.22459757429554866,0.24978141890645997,0.276037197166088
1338,0.24976552497064355,0.24357272518764644,0.2747775886151622,0.23188416122654784
1339,0.22227151140003337,0.28670065013448653,0.2687563270654467,0.22227151140003337
1340,0.24958380963190333,0.22459757429554866,0.24978141890645997,0.276037197166088
1341,0.22227151140003337,0.28670065013448653,0.2687563270654467,0.22227151140003337
1342,0.22680395398311315,0.2793681010290941,0.27128607894139994,0.22254186604639276
1343,0.27055697202169154,0.22273234434830128,0.2311491852506253,0.27556149837938193
1344,0.2496954367227103,0.2478443453489495,0.27470048157743304,0.22775973635090707
1345,0.22227151140003337,0.28670065013448653,0.2687563270654467,0.22227151140003337
1346,0.22227151140003337,0.28670065013448653,0.2687563270654467,0.22227151140003337
1347,0.22227151140003337,0.28670065013448653,0.2687563270654467,0.22227151140003337
1348,0.22227151140003337,0.28670065013448653,0.2687563270654467,0.22227151140003337
1349,0.22227151140003337,0.28670065013448653,0.2687563270654467,0.22227151140003337
1350,0.24976552497064355,0.24357272518764644,0.2747775886151622,0.23188416122654784
1351,0.24958380963190333,0.22459757429554866,0.24978141890645997,0.276037197166088
1352,0.24292283574736154,0.25468507578998073,0.27466323445544255,0.22772885400721524
1353,0.2496954367227103,0.2478443453489495,0.27470048157743304,0.22775973635090707
1354,0.22227151140003337,0.28670065013448653,0.2687563270654467,0.22227151140003337
1355,0.22227151140003337,0.28670065013448653,0.2687563270654467,0.22227151140003337
1356,0.24012407192037208,0.28547918522123267,0.25160336642960446,0.22279337642879077
1357,0.25662894851913526,0.2655761118425382,0.24989481190383026,0.22790012773449628
1358,0.2670974752288366,0.24631594729841516,0.25872916101638715,0.22785741645636115
1359,0.24958380963190333,0.22459757429554866,0.24978141890645997,0.276037197166088
1360,0.2496954367227103,0.2478443453489495,0.27470048157743304,0.22775973635090707
1361,0.2381928573629116,0.2854486199762488,0.25358899992956463,0.22276952273127495
1362,0.22681571995332445,0.2767465803792093,0.2738842887563536,0.22255341091111264
1363,0.24958380963190333,0.22459757429554866,0.24978141890645997,0.276037197166088
1364,0.22227151140003337,0.28670065013448653,0.2687563270654467,0.22227151140003337
1365,0.22227151140003337,0.28670065013448653,0.2687563270654467,0.22227151140003337
1366,0.22227151140003337,0.28670065013448653,0.2687563270654467,0.22227151140003337
1367,0.22227151140003337,0.28670065013448653,0.2687563270654467,0.22227151140003337
1368,0.2764223240926711,0.2461650096075887,0.24969487650034067,0.22771778979939955
1369,0.22227151140003337,0.28670065013448653,0.2687563270654467,0.22227151140003337
1370,0.2496954367227103,0.2478443453489495,0.27470048157743304,0.22775973635090707
1371,0.2496954367227103,0.2478443453489495,0.27470048157743304,0.22775973635090707
1372,0.24958380963190333,0.22459757429554866,0.24978141890645997,0.276037197166088
1373,0.2665502291945223,0.22285482973899404,0.2348819053884322,0.2757130356780515
1374,0.22227151140003337,0.28670065013448653,0.2687563270654467,0.22227151140003337
1375,0.2764223240926711,0.2461650096075887,0.24969487650034067,0.22771778979939955
1376,0.24671842605155303,0.28551653147963335,0.24494252031088815,0.22282252215792553
1377,0.22227151140003337,0.28670065013448653,0.2687563270654467,0.22227151140003337
1378,0.25850361612021977,0.22302150323001926,0.24255563874215877,0.27591924190760214
1379,0.24958380963190333,0.22459757429554866,0.24978141890645997,0.276037197166088
1380,0.24958380963190333,0.22459757429554866,0.24978141890645997,0.276037197166088
1381,0.22227151140003337,0.28670065013448653,0.2687563270654467,0.22227151140003337
1382,0.24958380963190333,0.22459757429554866,0.24978141890645997,0.276037197166088
1383,0.24958380963190333,0.22459757429554866,0.24978141890645997,0.276037197166088
1384,0.2712777384514055,0.24201719612816364,0.25477270010446706,0.23193236531596376
1385,0.25850361612021977,0.22302150323001926,0.24255563874215877,0.27591924190760214
1386,0.24958380963190333,0.22459757429554866,0.24978141890645997,0.276037197166088
1387,0.2712093593280849,0.246268569917037,0.25470848129322726,0.2278135894616509
1388,0.2543734920802728,0.27018242540268733,0.24977312431298168,0.22567095820405808
1389,0.2764223240926711,0.2461650096075887,0.24969487650034067,0.22771778979939955
1390,0.2496954367227103,0.2478443453489495,0.27470048157743304,0.22775973635090707
1391,0.2764223240926711,0.2461650096075887,0.24969487650034067,0.22771778979939955
1392,0.22227151140003337,0.28670065013448653,0.2687563270654467,0.22227151140003337
1393,0.2306621982024805,0.2852415355675873,0.2614883561030077,0.2226079101269245
1394,0.24292283574736154,0.25468507578998073,0.27466323445544255,0.22772885400721524
1395,0.2496954367227103,0.2478443453489495,0.27470048157743304,0.22775973635090707
1396,0.2670974752288366,0.24631594729841516,0.25872916101638715,0.22785741645636115
1397,0.24958380963190333,0.22459757429554866,0.24978141890645997,0.276037197166088
1398,0.22227151140003337,0.28670065013448653,0.2687563270654467,0.22227151140003337
1399,0.22227151140003337,0.28670065013448653,0.2687563270654467,0.22227151140003337
1400,0.25850361612021977,0.22302150323001926,0.24255563874215877,0.27591924190760214
1401,0.2670974752288366,0.24631594729841516,0.25872916101638715,0.22785741645636115
1402,0.2292504711286587,0.2714005244888186,0.2741551378540549,0.22519386652846785
1403,0.24671842605155303,0.28551653147963335,0.24494252031088815,0.22282252215792553
1404,0.22227151140003337,0.28670065013448653,0.2687563270654467,0.22227151140003337
1405,0.22227151140003337,0.28670065013448653,0.2687563270654467,0.22227151140003337
1406,0.22227151140003337,0.28670065013448653,0.2687563270654467,0.22227151140003337
1407,0.22227151140003337,0.28670065013448653,0.2687563270654467,0.22227151140003337
1408,0.27055697202169154,0.22273234434830128,0.2311491852506253,0.27556149837938193
1409,0.24958380963190333,0.22459757429554866,0.24978141890645997,0.276037197166088
1410,0.22227151140003337,0.28670065013448653,0.2687563270654467,0.22227151140003337
1411,0.22227151140003337,0.28670065013448653,0.2687563270654467,0.22227151140003337
1412,0.27649198822892346,0.24191539794815328,0.2497578047676401,0.23183480905528323
1413,0.2496954367227103,0.2478443453489495,0.27470048157743304,0.22775973635090707
1414,0.24958380963190333,0.22459757429554866,0.24978141890645997,0.276037197166088
1415,0.2765487086363895,0.23569615097861057,0.24692313077228814,0.24083200961271184
1416,0.2764223240926711,0.2461650096075887,0.24969487650034067,0.22771778979939955
1417,0.2306621982024805,0.2852415355675873,0.2614883561030077,0.2226079101269245
1418,0.2496954367227103,0.2478443453489495,0.27470048157743304,0.22775973635090707
1419,0.24958380963190333,0.22459757429554866,0.24978141890645997,0.276037197166088
1420,0.24976552497064355,0.24357272518764644,0.2747775886151622,0.23188416122654784
1421,0.22227151140003337,0.28670065013448653,0.2687563270654467,0.22227151140003337
1422,0.22227151140003337,0.28670065013448653,0.2687563270654467,0.22227151140003337
1423,0.22680395398311315,0.2793681010290941,0.27128607894139994,0.22254186604639276
1424,0.24958380963190333,0.22459757429554866,0.24978141890645997,0.276037197166088
1425,0.251267088896921,0.2245953318658973,0.24810313808481183,0.2760344411523699
1426,0.22227151140003337,0.28670065013448653,0.2687563270654467,0.22227151140003337
1427,0.2306621982024805,0.2852415355675873,0.2614883561030077,0.2226079101269245
1428,0.24958380963190333,0.22459757429554866,0.24978141890645997,0.276037197166088
1429,0.2496954367227103,0.2478443453489495,0.27470048157743304,0.22775973635090707
1430,0.27055697202169154,0.22273234434830128,0.2311491852506253,0.27556149837938193
1431,0.2496954367227103,0.2478443453489495,0.27470048157743304,0.22775973635090707
