,0,1,2,3
0,0.9949682575083276,0.0006523992572064818,0.0007960119232709585,0.003583331311194779
1,0.9938868703942707,1.367635707427552e-05,0.00032009002870707646,0.005779363219947967
2,0.011592158970546194,2.6049738476091588e-05,0.05911215810592656,0.9292696331850511
3,0.025854878755913094,0.0027373549015676075,0.007414270168881064,0.963993496173638
4,1.1161184056325181e-07,0.9994969471245906,0.00040451736894378575,9.842389462501115e-05
5,0.001946615106345856,4.175536469404819e-05,9.599213388591808e-05,0.9979156373950742
6,2.5258786857360405e-07,1.2759078428480483e-07,0.9998504535447593,0.00014916627658785283
7,4.289934613221529e-07,2.179346459035223e-07,2.2393943993012445e-07,0.9999991291324528
8,0.00026638137883056045,0.9763755856245588,0.023107012173825197,0.0002510208227853351
9,1.132643838788008e-07,0.9997205347110163,0.0001535673886816521,0.00012578463591817905
10,0.9932109727233809,1.6404744369954937e-05,0.0016858314444673174,0.005086791087781726
11,0.007451232639789527,0.9708766650178431,0.014224108836349237,0.007447993506017681
12,0.9987100643185342,0.0005583284849511431,0.00019903395880553363,0.0005325732377094314
13,0.02143095329414937,0.00021582923530861746,0.05885614553978293,0.9194970719307587
14,0.053120991918708636,0.007352097904390748,0.015969104650429593,0.9235578055264709
15,0.9812498879202967,0.0026563017545344868,0.0034195817628669446,0.012674228562301765
16,0.9863566192894927,0.00016299185161656535,0.0004398058914425351,0.013040582967447858
17,1.1620332966996805e-11,0.9999967515139678,8.650033713041305e-07,2.383471040516498e-06
18,0.004092401282404694,0.0028606641798494654,0.01387183811938325,0.9791750964183622
19,0.0007705866274070056,0.9335032287508003,0.06447819258205023,0.0012479920397423432
20,0.04255219635576343,9.654832534329405e-05,0.9031328109583957,0.054218444360497324
21,0.9801319560920866,0.010312083890149239,0.001298465019904505,0.00825749499785968
22,0.03470868410657035,0.0001915797379208219,0.01092502047420448,0.9541747156813043
23,0.975962011402752,0.0003830612694560048,0.0012245381216423434,0.022430389206149714
24,8.358711031468978e-07,3.5588730003233966e-07,5.105907254460781e-07,0.9999982976508714
25,3.7978868679473572e-06,0.9970746473076253,0.002800418178124967,0.00012113662738181544
26,2.2027752800949952e-05,0.993617427317673,0.006127583904980155,0.00023296102454606874
27,0.0008812551491065459,9.903892233554022e-06,0.9966749544556361,0.002433886503023747
28,0.011452990749315207,3.6140642732989786e-05,0.9767987715753949,0.011712097032556648
29,0.9877690241904802,0.006334803323604588,0.00039377097709146724,0.005502401508823758
30,7.359911549505961e-06,4.634337766075447e-06,0.9973053406567768,0.002682665093907623
31,2.540620767303072e-05,0.946018056883777,0.05190913586683265,0.0020474010417173604
32,6.776618648473936e-07,1.4482829828660165e-06,0.999456255078831,0.000541618976321418
33,1.2040620526912814e-06,7.26170817631435e-07,0.9993023205395004,0.0006957492276292693
34,1.926164498423594e-08,1.9608370100728772e-08,0.9998470969973631,0.00015286413262179525
35,1.73971441966577e-05,0.9961002082972642,0.00029222495012333054,0.003590169608415894
36,7.009333172642036e-06,0.9962355871852482,0.003747007274904911,1.0396206674335772e-05
37,3.4509791479375615e-05,0.9911449108829951,0.00857385837306419,0.0002467209524613035
38,0.998110109846462,3.684478223327094e-06,6.57377420347267e-05,0.0018204679332796425
39,0.9352173418482052,0.005652379861108755,0.011767149839413389,0.04736312845127297
40,2.595007927736548e-10,0.9999879247189692,1.8862351619067704e-07,1.1886398013777843e-05
41,1.5042559961584386e-08,0.9999143849601875,4.1942862639178743e-05,4.3657134613605926e-05
42,4.0922734240836544e-08,2.3882401744819847e-08,0.9999139867437731,8.59484510909985e-05
43,7.998606098416519e-07,0.9986830254701891,0.0013009386405332276,1.5236028667636972e-05
44,4.5416042904295936e-08,9.425181474567179e-08,0.999944715173239,5.514515890344641e-05
45,0.9801586040921006,0.00016897084833720778,0.004827399607906241,0.014845025451656025
46,0.9964651984422669,4.075648735512541e-05,0.0003022618465255613,0.0031917832238521735
47,4.3414472715912666e-05,0.06878716611421307,0.9308849685647476,0.00028445084832389274
48,5.3365353853205426e-05,0.9903523930017297,0.004240752652565734,0.0053534889918513545
49,0.0030830293656360654,0.013071117713005362,0.963343423166232,0.020502429755126443
50,8.168164908509832e-08,0.9999659607085444,1.1536361461609328e-05,2.242124834497555e-05
51,0.01097027496184259,0.0012604271147619763,0.0006582573803844617,0.9871110405430109
52,0.0002268640240069865,1.291009777020078e-05,0.00313483223747312,0.9966253936407498
53,6.286174842855376e-11,0.9999891810152449,5.413644264255405e-06,5.405277629046783e-06
54,7.821963819293859e-07,4.993722399363434e-07,0.9995139018604814,0.00048481657089684775
55,3.71404170000475e-07,2.224338220918537e-07,4.2151871104768686e-07,0.999998984643297
56,8.48326859628217e-09,0.9998500900183387,0.00012634503406318528,2.3556464329406104e-05
57,0.9197924162532383,0.008984111663091663,0.02357101270062118,0.047652459383048976
58,0.9245671188098539,7.608717635952004e-05,0.034846894305905304,0.04050989970788137
59,0.9996160994643263,1.731181292057668e-05,0.00029038022511024004,7.62084976429484e-05
60,0.9789276740695406,0.00011785140580971525,0.005048003296963499,0.015906471227685924
61,1.0898452024911821e-07,0.9995330793785229,0.0004452905238478389,2.152111310886123e-05
62,0.05498533086038266,0.008211843621926089,0.019245627216658314,0.9175571983010328
63,4.436338696660428e-05,0.0031050617142001752,0.9963012598407623,0.0005493150580707687
64,0.9930696027488587,1.8641815952839193e-05,0.0033989043101554117,0.0035128511250328035
65,1.7965395796749536e-05,0.9934210601703057,0.005989447398160238,0.0005715270357372018
66,0.0021642773023701507,5.743343091186513e-06,0.9834789499572503,0.014351029397288065
67,5.230845212209176e-05,0.9340947904482467,0.0644432677750288,0.0014096333246024887
68,0.00028456689706550335,0.9755707610040144,0.02407449961533561,7.017248358444663e-05
69,0.999442810180688,1.6405167622715512e-05,0.00013369656846870293,0.00040708808322053284
70,0.004785652891207394,0.9835517489018595,0.0018392564034895584,0.00982334180344365
71,8.850822168339381e-07,0.9985538241720744,0.0013480129192475756,9.727782646113343e-05
72,3.828286190931738e-06,0.9968270687966592,0.002625534649261097,0.0005435682678891295
73,0.00047642200410782454,0.000161482650627419,0.018416763024872305,0.9809453323203922
74,1.2202595240143758e-06,7.990715217555432e-07,8.6967907591779e-07,0.9999971109898783
75,0.984803918613664,0.0013145357367793677,0.005311348667998513,0.008570196981558068
76,2.0263637874373048e-05,0.9933487855630345,0.006580855247974639,5.0095551116662e-05
77,0.9888919425258785,0.00047957129745352837,0.0006207805745502405,0.010007705602117624
78,1.3967075466278605e-05,2.875352920572848e-05,0.9973029664428301,0.002654312952498014
79,0.006370638157580369,0.0009287434886386683,0.03155365382764072,0.9611469645261398
80,0.029302956825341637,0.0009214003828571851,0.0009271125330954483,0.9688485302587058
81,0.9928929969802655,2.177829706799885e-05,0.00011340239512876602,0.006971822327537867
82,0.9791087053345916,0.00011538181391086846,0.018991930167625192,0.0017839826838723365
83,0.0002599359260320624,0.9771195041892042,0.02207577095675807,0.0005447889280056715
84,0.026586874889657747,0.0002067352890404456,0.009149957080289404,0.9640564327410124
85,6.180858323453715e-07,0.9989931577702575,0.00036596471493908936,0.000640259428971146
86,0.052562721123318806,0.0002601003429371392,0.0012960600066228547,0.9458811185271209
87,3.1578953012205363e-10,0.9999757741947912,1.5956533013606082e-05,8.268956405739718e-06
88,1.783138026517169e-06,0.9657330445043324,0.033877198567605446,0.0003879737900354724
89,5.537059035579232e-08,0.99988652715116,1.7818359668567225e-05,9.559911858095135e-05
90,1.8938822154457035e-08,0.9998269346461444,7.079482149877851e-05,0.0001022515935346467
91,0.9759935892826196,0.0003865515215799869,0.0004648682662948978,0.023154990929505438
92,0.967603353755538,0.004350976836655881,0.0044207167212085945,0.023624952686597585
93,0.9617511673686305,8.098326602740135e-06,0.0010363089206575301,0.037204425384109084
94,0.04714045243494663,0.010698269320129926,0.021410644588471656,0.9207506336564516
95,0.0008274847258974708,0.9606577330663487,0.036711479444232614,0.0018033027635210774
96,6.868228468711826e-07,0.9988071620643455,0.001162367805224702,2.9783307582943025e-05
97,0.9990271814038404,5.1061327752641675e-05,0.00042991919631693354,0.0004918380720902391
98,1.3939917250412332e-08,0.9999135935361664,3.567666165079265e-07,8.603575729993467e-05
99,0.0026686133200559633,3.2863800981179536e-05,0.996348467793982,0.0009500550849809728
100,0.996308585944964,1.3748116569674653e-05,0.001971348417450549,0.001706317521015821
101,0.9328887125748235,0.008022302401401494,0.0361280304597019,0.0229609545640728
102,1.5554635486577061e-06,3.3292508097962506e-06,0.9990626479590602,0.0009324673265813147
103,0.9493344137212547,0.0013575321805997982,0.002512989716275711,0.04679506438186983
104,0.0008460355389914345,2.3857006178085166e-06,0.9953413966269383,0.003810182133452321
105,2.327253151117711e-06,0.997639534301253,0.0018080190110621997,0.0005501194345337161
106,0.9366272450719331,0.013067586823347715,0.024973027796524116,0.025332140308194733
107,9.39051518923115e-12,0.9999967349704098,1.025557470039716e-06,2.2394627296649146e-06
108,0.0005311008171915141,0.02902297795755219,0.9668232430900677,0.003622678135188759
109,2.1149782786126178e-12,0.9999977015849162,2.0405989088112435e-06,2.578140601477518e-07
110,0.9889705745714507,4.0063138135341354e-05,0.0014556070228882775,0.009533755267525574
111,0.9987937162728103,1.1227567042365919e-05,6.436548924612526e-05,0.0011306906709011987
112,0.019645464033408146,0.0011423399624885912,0.05844351694245778,0.9207686790616452
113,5.3114452052474065e-06,0.9963818539109138,0.003286056789181689,0.0003267778546991329
114,1.4123103930592274e-06,0.9982750277363373,0.001714794172912899,8.765780356806644e-06
115,3.228760674513976e-05,0.007167333801664716,0.9918258945721059,0.0009744840194843456
116,0.9819159258583833,0.0017341077862691732,0.0009072001175099328,0.015442766237837753
117,2.9187743070947543e-05,0.004409832023319944,0.9951632468477174,0.0003977333858918268
118,0.9759641041006849,0.0007039671611124318,0.0008986766333033731,0.022433252104899347
119,0.006171121429460368,0.0011693306759893991,0.9918499405600105,0.0008096073345395858
120,7.716761115057785e-06,4.667244878732345e-06,0.9970679517822972,0.0029196642117091036
121,2.817008247929848e-06,0.9975671973958226,0.002396359291287832,3.362630464176125e-05
122,8.243498936152043e-08,5.8840045591226907e-08,0.9999780939921323,2.1764732832674637e-05
123,1.670782651249129e-05,0.9939808662938737,0.005946278234186324,5.614764542759825e-05
124,0.055186809995411784,0.009480818943144498,0.02099375274392919,0.9143386183175146
125,0.9882195287133018,0.00016079549745928834,0.00037338472853652504,0.01124629106070242
126,0.015470122049253228,0.00386857274787653,0.024008414798292976,0.9566528904045772
127,0.9864872510608863,0.0001478251400160623,0.006959138497150611,0.006405785301947089
128,0.0005590965026848103,0.9902819086947884,0.0016724150557694054,0.007486579746757979
129,0.9869224954833956,5.6675261173307836e-05,0.0003988604302045189,0.012621968825226492
130,6.698728418871721e-11,0.9999938721003623,6.78154527203332e-07,5.449678123395226e-06
131,7.60665031959728e-08,4.611532409640253e-08,0.9997374403315096,0.00026243748666313077
132,9.001937100877776e-07,0.9690644917271982,0.0309100443801672,2.4563698924368324e-05
133,0.9952782512718953,3.6096598655021356e-05,0.0008551086601060555,0.003830543469343723
134,6.838016412698164e-12,0.9999972396499797,1.0518670263838991e-06,1.7084761559424091e-06
135,1.057881281992686e-09,0.9999481885888079,3.643403982759765e-05,1.5376313483066985e-05
136,0.9978710762137275,5.650947463915328e-06,0.0002192364558732575,0.0019040363829354926
137,5.057537460092641e-10,7.486479101909715e-10,0.9999785713181829,2.1427427415326917e-05
138,0.0007922241032539627,8.124733651659512e-05,0.01480828002143378,0.9843182485387957
139,2.232950065057762e-09,1.458895325472682e-09,0.9999571507674472,4.284554070735826e-05
140,0.9978274922855238,2.584210757288391e-05,0.00025597257254880614,0.0018906930343545185
141,1.0312452408247042e-12,0.9999991453666367,9.988110712817071e-08,7.547512247773497e-07
142,0.00016246086356359865,0.0687013359283124,0.929913871648518,0.0012223315596061374
143,6.288027893855464e-12,0.9999980098787324,9.929690734591986e-08,1.8908180722606105e-06
144,0.019572858663339292,0.0008300984028182319,0.04326858634468758,0.9363284565891549
145,3.0119127614575876e-05,0.9343668475520979,0.06457223591168347,0.0010307974086041134
146,0.05501666222104242,0.009069310636342061,0.032605570855885335,0.9033084562867302
147,5.206006532429995e-05,0.9888701512010196,0.00998913375640814,0.0010886549772479753
148,0.00024074623387685862,0.9319367590954011,0.06438868318009172,0.0034338114906301304
149,0.9598671290433037,0.004359920683896561,0.03231738675092649,0.0034555635218734026
150,0.04184613614756751,7.018374445837418e-05,0.9021484628169442,0.05593521729102955
151,1.8264021899885097e-05,0.9340027669209269,0.06456349616845675,0.001415472888716472
152,1.969586958831444e-06,1.1676954800096365e-06,0.9985234103812394,0.0014734523363218834
153,8.203740692552396e-06,0.9965022713945555,1.1772617509997898e-05,0.0034777522472420096
154,1.2712665562812164e-07,2.7195705645628767e-07,0.9999323861081313,6.721480815667435e-05
155,1.543414123834311e-05,8.978839127522158e-06,0.9958673463131174,0.0041082407065168025
156,0.05508808340189629,0.009904713179152341,0.022718614354546467,0.9122885890644049
157,0.0194330456775521,0.0008581098111652494,0.002441369403000522,0.9772674751082822
158,4.574563606582157e-05,0.9899617725860704,0.009901517543381672,9.096423448195183e-05
159,1.6228040538577498e-06,0.9981272889573821,0.0018299293386715967,4.1158899892364396e-05
160,3.300179982812958e-10,0.9999854950793265,1.2277358757537822e-06,1.3276854779747066e-05
161,1.541261360343258e-11,0.9999961376165853,2.2812844153101983e-06,1.5810835865841774e-06
162,0.00010865547867500515,0.9852425333271392,0.0144207119267133,0.00022809926747253804
163,3.055122525014542e-05,1.0138233865670177e-05,0.0012723471774756905,0.9986869633634081
164,1.8732070553535143e-06,0.960846332714897,0.038425908064199314,0.0007258860138485711
165,0.005930235646436645,1.985785548541556e-05,0.0013428750493027289,0.9927070314487751
166,0.9991150293764388,9.418695803642009e-07,0.0004198273644403238,0.00046420138954048415
167,0.9896583321535608,1.9109768451789238e-05,0.0014790638900397787,0.008843494187947616
168,0.9865321545172169,0.0001149918237047901,0.0005203645255980061,0.012832489133480151
169,0.05380180731965263,0.007757457348717408,0.013612531001513656,0.9248282043301165
170,0.947710287187066,0.0029371571546142395,0.002581437443168206,0.04677111821515162
171,2.9657647622934e-06,0.9971335695029508,0.0022808247019109273,0.0005826400303757607
172,0.00204069878572891,6.082600024435254e-06,0.9882931681627476,0.009660050451499166
173,0.9952039573584484,0.0007901679748632578,0.0009096712200342146,0.0030962034466544804
174,8.296708430978737e-06,0.9954614583350943,0.004064002615505583,0.0004662423409691266
175,2.3612922238253156e-07,1.0333659033367239e-07,0.999958559907264,4.110062692326651e-05
176,9.505766802440044e-06,0.9954442638810552,0.0044728384250771165,7.339192706517813e-05
177,8.665724460293266e-07,0.9986244808429566,0.0012945539689887613,8.009861560882189e-05
178,3.76736305236443e-05,0.9334940996140901,0.06454228263823082,0.0019259441171555062
179,0.9706146877658818,0.0004545881309646022,0.0007689658799912044,0.028161758223162588
180,9.650769051287278e-08,1.1241309729892319e-07,0.9996431304961143,0.000356660583097913
181,0.03601627029735516,0.0027383143813118193,0.008483688583048841,0.9527617267382845
182,1.4512772514069453e-06,8.770902362358223e-07,0.9987194716156779,0.001278200016834529
183,0.0047469112323853015,0.981408696861602,0.008706463382840007,0.005137928523172557
184,0.04650953899253562,0.0004471526169184959,0.00047307784234065645,0.9525702305482051
185,5.2771957970148035e-06,0.9421004367987855,0.05786992046446012,2.436554095741102e-05
186,0.08133956476812693,0.0011910932618989748,0.029082227042522814,0.8883871149274514
187,0.05459598587731934,0.010648759044288914,0.019437899215557587,0.9153173558628339
188,6.147020098871889e-08,0.999856871006588,1.7937514325864163e-05,0.00012513000888529996
189,0.9519427486621502,0.00029018799737651576,0.0009119049612062183,0.046855158379266806
190,1.2856977167752397e-10,0.9999981522035439,2.4767409016457417e-07,1.599993796206538e-06
191,0.9365146651776609,0.0049307571676554,0.011341122710892874,0.047213454943790915
192,1.8985706772055114e-07,1.1735993758626226e-07,1.7291589366607227e-07,0.999999519867101
193,1.5987388452858556e-10,0.9999891829255713,1.8149576822386172e-06,9.001956872590319e-06
194,1.897676159770893e-09,0.9999418629821729,5.00735084329585e-05,8.061611717881857e-06
195,2.7041386322658897e-07,1.6430054197905228e-07,3.0186508250144127e-07,0.9999992634205123
196,4.696130165146879e-08,7.931041967636496e-08,0.9997699138225861,0.00022995990569266964
197,0.003970162411367867,0.01041952709218026,0.9227297097777244,0.06288060071872735
198,0.005386802211223724,7.249986054572027e-05,0.37815012574895074,0.6163905721792797
199,2.0601262075494054e-07,0.9996348277177298,2.7546881034606498e-06,0.0003622115815459648
200,2.0798177040457815e-06,0.9985740247750413,0.00010027322846028202,0.0013236221787943285
201,0.0003785349857417272,0.9696603838415917,0.029818472032171774,0.00014260914049479066
202,0.9987451145520045,4.338493849716794e-06,0.0007427361935957085,0.0005078107605500216
203,2.0191763211477164e-08,4.367859509111705e-08,0.9999418676117635,5.8068517878177124e-05
204,0.0003966604624480742,0.030857381926604685,0.9680421279199412,0.0007038296910062304
205,0.9990162029847341,2.197896202587428e-06,0.000793823281705524,0.00018777583735766102
206,6.447506050083593e-05,0.9883943056449396,0.010887531898294767,0.0006536873962647762
207,3.6221352133450377e-10,0.9999711226906368,2.023294578003412e-05,8.644001369639137e-06
208,0.9465366107463397,0.011569455063348166,0.009987954954646406,0.03190597923566591
209,0.00700377598395579,0.001064414156831018,0.017792255025605653,0.9741395548336075
210,0.9858028220415522,7.726551369618441e-05,0.001969644107381119,0.012150268337370353
211,1.773495900816392e-07,1.1604456572016195e-07,2.054264748460798e-07,0.9999995011793693
212,3.43669235364066e-12,0.9999971109299297,2.6544911821773773e-06,2.3457545142426413e-07
213,3.2240489355730386e-09,2.6796678126373182e-09,0.9999394328474644,6.0561248818798856e-05
214,0.9891376758304952,0.00010427513800246223,0.00015098476461671917,0.010607064266885458
215,0.05258564188277885,0.0061208048591451306,0.0011349625264759995,0.9401585907316
216,1.8018336333560275e-09,0.9999697855628346,1.3518298325769229e-05,1.6694337006277353e-05
217,0.919846157404289,0.0018706547899219412,0.03266348788203724,0.0456196999237517
218,2.06631318550428e-07,4.176012019732367e-07,0.9999850277969123,1.4347970567276969e-05
219,4.769459439669432e-08,2.9431722238286345e-08,0.9997795425018225,0.0002203803718609553
220,0.03849260995787311,5.190361878024964e-06,0.9589429607025989,0.0025592389776498276
221,0.010670974976969075,0.0007582498663832034,0.004959807998854258,0.9836109671577934
222,6.196778007106595e-07,3.827451341513606e-07,0.9991729526082013,0.0008260449688637907
223,0.004662654317396995,2.8657237273972412e-05,0.0013771811287054312,0.9939315073166237
224,0.9958164306489373,2.7891144484873858e-05,0.0003531985762474035,0.0038024796303301922
225,0.03010570625305286,0.011100948131356696,0.059284023552124046,0.8995093220634667
226,3.3427622962302155e-06,2.0373751834969958e-06,0.9982912791734123,0.0017033406891079168
227,0.00031317886362577273,0.009669118667500145,0.9876744091388623,0.0023432933300117534
228,0.010098957170872721,0.0026680550941662754,0.0046461323181823,0.9825868554167783
229,5.394412323058108e-06,0.9587232844169029,0.040332785289953405,0.0009385358808204633
230,1.0127102494768578e-06,6.085031437903052e-07,1.15027521163486e-06,0.999997228511395
231,0.006164811561078336,3.9417784311697855e-05,0.0005720598527463625,0.9932237108018634
232,0.9505140712711541,0.0005836452103939867,0.0019854120959856615,0.04691687142246639
233,6.142433481910075e-08,0.9996389253547298,0.0003549962901163686,6.0169308191442176e-06
234,3.7195426883975406e-05,0.991126277290018,0.008566769931698914,0.00026975735139915335
235,0.9372904646588389,2.104518229411215e-05,0.023665068736328808,0.03902342142253827
236,2.3153345549666538e-06,0.9986179592447089,0.0005523784858515449,0.0008273469348847053
237,2.062361141163322e-06,0.9978808325405912,0.0020684503997737166,4.865469849408811e-05
238,4.1890542345834435e-05,0.9902939841246998,0.009589949982182176,7.417535077211395e-05
239,0.9973414816127346,4.412650220201623e-05,2.688333587517682e-05,0.002587508549188112
240,4.703945699157315e-10,0.9999755000234136,7.403908912931135e-06,1.7095597278778168e-05
241,1.9011854175529273e-06,1.054297938932994e-06,1.893368276754435e-06,0.9999951511483668
242,0.9853910597938667,0.0002818526229646195,0.0014990470800740673,0.012828040503094515
243,0.05264588307727825,5.937297615882959e-05,0.00056831143260627,0.9467264325139566
244,0.0009366022616580973,0.9325737125400264,0.06442783662523285,0.0020618485730828037
245,0.0014300471926494331,2.0449586445856087e-05,0.0017677374770577493,0.9967817657438469
246,9.475648922522622e-05,5.6728075341942046e-05,0.9894202305564938,0.010428284878939001
247,0.010226739911169468,5.046576873810943e-05,0.005509223142111678,0.9842135711779808
248,0.02651112343489702,9.813701582112941e-05,0.06071959640045301,0.912671143148829
249,6.8373139918032915e-06,0.9962906610427371,0.0028976089606038884,0.0008048926826671642
250,0.9993319132232423,1.3861221617294113e-05,1.8263451974140393e-05,0.000635962103166319
251,0.000158188348928082,5.217860438185973e-05,0.9346813821635881,0.06510825088310189
252,0.9872320953223698,0.00019784380841217128,0.008754911011712328,0.00381514985750574
253,0.0015140506526993872,0.00024630291357343235,0.024843817200492956,0.9733958292332344
254,1.919074107885663e-12,0.9999989412005709,1.7647111079628733e-07,8.823263992994485e-07
255,1.3426954956872593e-07,6.991956071738817e-08,0.999675651374511,0.00032414443637869664
256,9.94219592946923e-05,6.298101460040759e-05,0.9893308601065659,0.010506736919538826
257,0.015516354273327364,7.98118368909615e-05,0.010110021937120598,0.9742938119526612
258,0.9499696320104825,0.0013128348873633411,0.0018466108150128645,0.04687092228714156
259,9.262659283004202e-05,0.9855536294955027,0.014320734979649025,3.300893201822148e-05
260,2.904442670561203e-06,0.997676195315392,0.0020669828395111587,0.00025391740242623143
261,3.2075506450590764e-07,0.9995801402949707,0.0002490702607936123,0.00017046868917144927
262,1.4706077512433336e-10,0.9999885624229721,3.0989806059918266e-06,8.338449361372694e-06
263,0.9478422758902906,0.0021200315657459263,0.0032207752488035038,0.046816917295159834
264,0.9523071185196565,0.00017461516269284835,0.0006115386672193734,0.04690672765043136
265,1.6126524102820845e-10,0.9999905307206588,2.6002435414478905e-07,9.209093721853543e-06
266,3.0255083375416608e-05,0.9918963842148368,0.008049414440476785,2.3946261311007996e-05
267,0.0067952561973545576,0.0001336922480911051,0.0002290798318536344,0.9928419717227008
268,4.386224595260699e-08,5.900159422456156e-08,0.9998041618022323,0.00019573533392745423
269,1.3766887550130397e-07,0.9995585954572216,1.5857403210736664e-06,0.0004396811335819226
270,0.0236059690447131,0.00563463512771356,0.961976360297354,0.008783035530219481
271,2.9309815344534905e-06,2.8057672179584676e-06,0.9982704715747984,0.0017237916764491355
272,0.00605458734650066,0.9901112581910586,0.00047723089980108985,0.0033569235626396757
273,0.9899519620526994,0.0022930079788566968,0.005631194380206104,0.0021238355882376805
274,1.7555299772774678e-11,0.9999969145004262,9.991378569617535e-08,2.985568232802979e-06
275,6.4828427247711985e-06,0.057418271584693266,0.9425156910065222,5.9554566059998e-05
276,0.9978391298946093,0.00015092945551938806,0.0013386893812399657,0.0006712512686313431
277,5.5885007815235753e-08,2.161559254653411e-08,3.9981461287828364e-08,0.9999998825179383
278,0.002195437441486207,0.9292036211999303,0.06283472524885446,0.005766216109728909
279,1.943800455885615e-06,3.1403513770766617e-06,0.9990277371261013,0.0009671787220657961
280,0.007497691061499686,2.953394356805597e-05,0.9915969751498157,0.0008757998451160481
281,0.0003034224215072607,0.00018474549025079346,0.980488229679352,0.019023602408890058
282,0.9411522914377887,0.011580002979248053,0.006750637199150943,0.04051706838381217
283,0.9834633141407888,0.00011190360453324424,0.0028230064248038872,0.013601775829873972
284,0.9979998635997156,1.2083405726089942e-06,0.0014085576405446253,0.000590370419167279
285,0.9464655666313126,0.0019733506227421994,0.004709543849087539,0.04685153889685743
286,1.9513738283169398e-10,0.999980216167211,1.1047064934564712e-05,8.736572716977229e-06
287,9.278838674253922e-12,0.9999978043458883,9.938593057611017e-08,2.096258902196155e-06
288,3.609102675712228e-06,3.688724368641191e-06,0.9978336483257886,0.0021590538471669483
289,1.7579149621224135e-07,0.999581679122898,8.605246750089572e-05,0.00033209261810518344
290,1.255396419615916e-08,0.9999319457945041,5.429169085878432e-05,1.3749960672893815e-05
291,1.6789883440670139e-09,0.999969377416054,1.0370254911900732e-06,2.9583879466445786e-05
292,0.013200961222331695,1.4712707809940175e-05,0.0009396759898378297,0.9858446500800206
293,0.006876721697011999,0.0005166851744907936,0.00045604289904483113,0.9921505502294525
294,0.05416193046163613,0.008322279861835726,0.015297585312660955,0.9222182043638675
295,0.9978476109851021,0.00012874379146953527,0.00046402222178240524,0.0015596230016459549
296,1.3208459096477625e-07,0.9994141285585533,0.0004493587732229638,0.0001363805836327948
297,1.7201880196402169e-10,0.999986694850514,3.912066385528688e-06,9.392911081629439e-06
298,0.0034991387183935757,2.8752236557680052e-05,0.0014097409011997488,0.9950623681438487
299,1.1291141735266787e-06,0.9984768883794738,0.0015008063516103347,2.117615474215588e-05
300,0.05251343513387437,0.001894370112566406,0.0008143844559486651,0.9447778102976105
301,0.9995185724659491,4.090620311364858e-06,0.00044867137484842643,2.8665538891232965e-05
302,4.5585430085257005e-05,0.9900186984486901,0.009928625987578083,7.0901336465588964e-06
303,0.027850847390098805,0.0006625391932067098,0.004554523281206913,0.9669320901354876
304,0.020430173941374172,0.00017439454688419258,0.9223773981832541,0.05701803332848761
305,0.999477889060985,5.697522766074316e-06,6.909361718663535e-05,0.00044731979906226786
306,0.9608166373526303,0.011123554204893719,0.0050500499174508905,0.023009758525025178
307,0.9518551306112273,0.0005122771749395431,0.0006972764781825748,0.04693531573565063
308,0.9976627706671077,9.536070533234438e-05,9.845658371689836e-05,0.0021434120438431205
309,0.054542632729989604,0.008222014609761179,0.01744375468729197,0.9197915979729573
310,0.9862654797405741,8.952241842563073e-05,0.00023187558066408684,0.013413122260336386
311,2.287082300310041e-06,9.134641346636623e-07,1.8655392907446408e-06,0.9999949339142743
312,0.05254737091563466,0.006068610356782719,0.0017365042796322844,0.9396475144479502
313,0.0545293546380764,0.0064371173973105916,0.016989131620546133,0.9220443963440669
314,1.7206111985103124e-07,1.0766989733160427e-07,0.9995955157577923,0.00040420451119058966
315,0.9462139760007364,0.012633670447004199,0.016820459449831886,0.024331894102427372
316,0.9987994376895228,6.326366777893672e-07,0.0009872532102568343,0.00021267646354247442
317,0.018040205529821485,0.008667171517873204,0.009226272857042568,0.9640663500952629
318,1.3657647541321766e-07,0.9994557648042447,0.0005409274612085334,3.171158071319232e-06
319,0.00644593336792478,0.0017340710476935034,0.9876729754896449,0.0041470200947369504
320,2.056163856335946e-09,0.9999325344588795,6.413732971136947e-05,3.3261552453079848e-06
321,6.472492795391174e-08,3.921215004580063e-08,0.9997293774434075,0.0002705186195144514
322,0.0010003086637367742,6.340101798146942e-06,0.000632342644688411,0.9983610085897765
323,0.9986166778892069,3.5274256446450484e-06,2.598301593068147e-05,0.0013538116692176727
324,0.00022970501265722918,0.9769290120436894,0.022654639967949475,0.00018664297570391373
325,0.994746941668638,6.651790285895095e-06,0.003130542564460694,0.0021158639766152734
326,1.6142923540208002e-05,0.9943840175602208,0.005359643509541777,0.00024019600669730016
327,0.015558873492523587,0.00019983633917915457,0.0002175641037694256,0.9840237260645278
328,0.9376606853413163,0.015508937040348482,0.018060393503629674,0.02876998411470558
329,0.0011203886681711468,1.8110723101965917e-06,0.9894283221755746,0.009449478083944234
330,9.262142187707543e-09,0.9999041051092913,4.5481674860186526e-05,5.040395370665007e-05
331,3.582291125643404e-09,0.9999165487265923,7.776003296290058e-05,5.687658153620546e-06
332,1.2679058533708569e-05,0.994834458730183,0.005039675712679308,0.00011318649860396959
333,0.9535967652449147,0.008699049141761707,0.033807815028542104,0.003896370584781626
334,6.812491527893043e-08,0.999600365933869,0.00037662339987056036,2.294254134523823e-05
335,9.077245564122601e-07,0.998779740749268,0.000892027577751045,0.0003273239484244339
336,0.9990722574116213,2.186142270557369e-05,0.0003320329160682205,0.0005738482496047834
337,0.944412109054082,0.0027512410993785334,0.0059941385171949245,0.04684251132934443
338,2.3535042977350215e-05,0.9928412999930171,0.007077131092167864,5.803387183778353e-05
339,0.9983743830270652,6.275596068521084e-05,0.0012221194230419615,0.0003407415892078982
340,0.006675121497616249,0.000586521640149506,0.00020655066969892954,0.9925318061925351
341,0.93734806716016,0.00193348499399011,0.0139102854418879,0.046808162403962086
342,0.0007770950489366308,0.0007356808484106028,0.0009869129593159658,0.9975003111433369
343,7.747351989833413e-08,0.9995749985312852,0.0004029849976248207,2.193899756999934e-05
344,5.55025762721989e-06,0.9973231130684314,0.0009084909903457381,0.0017628456835957764
345,0.9510216437961702,0.0009822592656768268,0.0010873661000663146,0.04690873083808651
346,0.001965134435893522,0.00028212095602054253,0.9976072553037327,0.00014548930435348483
347,0.05240403615281475,0.0006229033376710091,0.0010851183254372073,0.9458879421840768
348,1.4622428042074285e-07,0.9994258935220995,0.0005448350104550173,2.912524316513641e-05
349,1.1454857024148586e-08,8.443679461949435e-09,0.9999817111924418,1.8268909021831822e-05
350,0.0008798647530598197,5.827101378767765e-07,0.9851851056964998,0.013934446840302487
351,1.2392105426957063e-08,0.9998819492357428,2.3057203849200865e-05,9.49811683024179e-05
352,3.987154305843037e-05,0.9905960622714703,0.009331882953415681,3.21832320554844e-05
353,3.123946816671128e-10,0.9999833544034942,9.56465010690387e-07,1.5688819100555476e-05
354,6.953243731632248e-13,0.9999993416317686,9.98931506012233e-08,5.584743854278308e-07
355,3.98947853665907e-09,8.627493930921638e-09,0.9999873749846167,1.2612398410838992e-05
356,3.4784730008163786e-07,2.059541840397722e-07,0.9998027707037234,0.0001966754947925715
357,0.9991241148040388,1.0560326654167115e-05,2.4097450068487202e-05,0.0008412274192384564
358,1.0839249969489899e-08,8.907989558555771e-09,0.9998910751052039,0.00010890514755656509
359,1.0303393519159745e-10,0.9999879965288249,5.100138851751188e-06,6.90322928925117e-06
360,0.9588348359470447,0.001294906335207861,0.03461155545072044,0.0052587022670269054
361,1.3310576261261326e-05,0.9945693896723599,0.005067430198560793,0.00034986955281806324
362,0.05238354509285776,0.003130031525563557,0.001837369407478049,0.9426490539741008
363,0.0030950684167176433,0.9917687034518158,0.001401993891771102,0.0037342342396953143
364,6.131326687036524e-06,0.00319581862607764,0.9965620618958186,0.00023598815141667517
365,1.7165962377387436e-05,1.0067089992905938e-05,0.9956902048700099,0.0042825620776197485
366,5.142036589787168e-10,0.9999698031115216,1.0657193877796567e-05,1.9539180397070312e-05
367,0.0004232180132729992,1.6251679924491865e-05,0.002830254379967737,0.9967302759268347
368,0.999519197446331,8.274813071365999e-07,2.2583537000917173e-05,0.00045739153536076936
369,1.3709493041247633e-11,0.9999987285947372,9.979460676143835e-08,1.1715969468969305e-06
370,0.9900722868327266,5.540159477455941e-05,0.001397013000846696,0.00847529857165224
371,0.0010862826723238308,0.00022108512808905603,0.025948989681399633,0.9727436425181873
372,8.771918954066596e-12,0.999996696434644,1.231230776500518e-06,2.072325807692382e-06
373,8.157465966585717e-08,6.597158241812124e-08,0.999703621923868,0.00029623052988983955
374,0.9980371529718214,1.7904229499621176e-06,0.00017956376714921854,0.0017814928380792707
375,0.003984401088053713,0.0003305174918111262,0.9948749304330964,0.0008101509870386635
376,5.396932740257798e-09,0.9999036016481729,9.269840903266233e-05,3.694545861639378e-06
377,0.9846966325038666,0.010337974025695371,0.002035188485337143,0.002930204985100828
378,0.9978547151109145,9.355034489661021e-05,0.00015389174054831288,0.0018978428036404722
379,9.13736221607784e-07,5.958662406898714e-07,0.999180504267119,0.0008179861304186231
380,4.048898998800793e-11,0.9999936578111008,2.2815710918516295e-06,4.0605773183416234e-06
381,0.054012705093277574,0.011216576814701578,0.017439624921093213,0.9173310931709278
382,0.9512447418604918,3.794438985081001e-05,0.0018051340045476697,0.04691217974510973
383,2.2222741192132473e-07,1.34815306523978e-07,0.9995372846252358,0.0004623583320457785
384,1.8304957807395909e-06,1.107580510124191e-06,0.9988790696549446,0.0011179922687645691
385,2.0015558207356272e-07,4.32925708100683e-07,0.9999544534488383,4.491346987145895e-05
386,1.2284300583575305e-09,0.999943072310139,4.653585690805427e-05,1.03906045229039e-05
387,1.7615278847499754e-08,0.9999527997804808,1.8272266625860083e-05,2.891033761446929e-05
388,0.9992744625274035,8.111273796288312e-07,5.800507360931457e-05,0.0006667212716077055
389,7.718015413084295e-06,0.9966857445231302,2.0287948989624012e-05,0.0032862495124672516
390,5.3684046106377913e-11,8.117736049642661e-11,0.9999938681719912,6.13169314735615e-06
391,0.0024010326631503263,0.0009157162363064438,0.989055860168813,0.007627390931730422
392,1.3011180877521802e-05,0.9351760622040172,0.06463215027299835,0.00017877634210683354
393,1.1377039623443774e-05,0.9950379464346417,0.004667431265269815,0.0002832452604650641
394,0.0007269206025256285,0.0030836823369336077,0.9854719180654687,0.010717478995072013
395,0.9957654851547932,2.1956099800004406e-05,3.48870442519089e-05,0.004177671701154684
396,0.05292565871584579,0.010655076734526049,0.010296714991493696,0.9261225495581348
397,6.913472077258935e-08,4.2670822197603504e-08,7.917982298119197e-08,0.999999809014634
398,2.7231220784741286e-11,0.9999956392036847,9.681142458558598e-08,4.263957659438327e-06
399,0.004264084415227823,0.018336594527815157,0.9402045209949965,0.037194800061960576
400,1.2009650713862315e-05,0.9342307083537844,0.06456309859440022,0.0011941834011014567
401,7.002701061890345e-05,0.9870522609147709,0.012155107318174627,0.0007226047564355459
402,0.9509335087684696,0.0005272833006524309,0.0016389324791194002,0.04690027545175838
403,7.6017366149122965e-06,4.622183179754032e-06,0.9970382178502636,0.002949558229941708
404,0.9811629884438683,0.010353742412033374,0.007828558387332936,0.0006547107567654487
405,0.9789542454535941,0.00018361185034476338,0.007104126806871843,0.01375801588918931
406,0.9991660296989536,3.8587525889823457e-07,0.0001924810442756131,0.000641103381511965
407,0.9973310685107234,0.0017595428724832877,0.00021211718303849937,0.0006972714337546793
408,3.633164525196346e-07,0.9991539830270121,0.0007977092997205384,4.7944356814666566e-05
409,0.9963651715580663,4.041341437565909e-06,0.0028554885947201965,0.0007752985057759137
410,0.9979045226632506,2.2228351597956404e-06,0.0003804907610557615,0.001712763740533825
411,0.9833039592827154,0.00010849963794336894,0.0005135763968287636,0.016073964682512386
412,8.432029286437592e-08,5.122459823435653e-08,0.9996930305728894,0.0003068338822194712
413,2.3080985889961025e-05,0.9931744225421352,0.00676929440498538,3.3202066989345655e-05
414,0.9963189819858161,5.045403774341991e-06,0.0013752037308309975,0.002300768879578675
415,1.725065482037774e-05,0.08693904069463082,0.9128531055387441,0.00019060311180455324
416,0.9765513339971615,0.00012505741553183207,0.017686902410155553,0.005636706177151087
417,1.6694971865038855e-08,0.9998262363029561,0.0001523643191353631,2.1382682936670682e-05
418,0.00017031418104929553,0.008054060918279964,0.9912388134990997,0.000536811401571082
419,2.0526571682000935e-07,0.9993420567079214,0.0006338360106568202,2.3902015704820605e-05
420,1.4876486970762842e-05,0.9345103404801747,0.06457772860551145,0.0008970544273434739
421,2.9000934420793837e-05,0.9921115542791502,0.006735431451405604,0.0011240133350231766
422,0.9890160073156888,0.0003581182415265449,0.00020865076668703615,0.010417223676097693
423,0.00037267641830260973,9.302242539046742e-06,0.0015238615091301376,0.9980941598300281
424,3.411927302275142e-09,5.5176887666423845e-09,0.9999407966036699,5.9194466714009585e-05
425,1.8684376637923025e-05,0.9935559569125619,0.0063729331287804255,5.2425582019796934e-05
426,1.245011254525233e-07,0.9995418274849578,0.00032648991344925147,0.00013155810046748117
427,6.31804673040724e-05,0.9886575414443362,0.011037331234066881,0.00024194685429278687
428,5.078596131692096e-11,0.9999945988243139,3.4495016073458967e-07,5.0561747394976e-06
429,3.4709657412548993e-09,0.999909038695551,5.7141397474530334e-05,3.3816436008722585e-05
430,1.6987806336286927e-05,0.9939040301388605,0.006016042932458793,6.29391223442925e-05
431,0.011570744822640557,6.727916120214163e-05,0.0001898730472768892,0.9881721029688804
432,1.752983221200484e-08,0.9997986353358754,0.00019281563481667364,8.531499475880742e-06
433,1.4061976842850303e-08,9.776108663947931e-09,0.9998854376393239,0.00011453852259071706
434,4.135186430947369e-05,0.00018146928559854204,0.9346870711332682,0.06509010771682391
435,4.894585591836558e-08,2.444201261799624e-08,4.994648411544419e-08,0.9999998766656473
436,5.1573537854064125e-08,3.146182980183049e-08,0.9997630440623599,0.00023687290227236745
437,7.612304211053156e-06,0.9958397519916071,0.003914753721532051,0.00023788198264991292
438,1.3582210845220282e-10,1.7926221807761204e-10,0.9999883738758714,1.1625809044345574e-05
439,0.0016871285456030915,0.0003125899196926452,0.9331055254670795,0.06489475606762486
440,2.9018802197488018e-08,0.9998402523132485,3.639728065406536e-05,0.00012332138729548138
441,5.224456946812242e-07,5.02970612635655e-07,0.9999547039049456,4.427067874705098e-05
442,5.521823048329011e-07,0.9988578407084386,0.0010775961429999028,6.401096625686229e-05
443,0.9996499029839054,3.333615067591226e-07,0.00017097590113433986,0.0001787877534534902
444,0.0006363910355221325,0.0339573705193593,0.965156495865738,0.0002497425793806831
445,0.005522895723719779,0.003353895595079984,9.453701874796635e-05,0.9910286716624526
446,0.9445067758412886,0.0020035923188186132,0.006634241248131284,0.04685539059176144
447,5.061846756085412e-05,0.9897261022958205,0.01006242517677183,0.00016085405984667784
448,0.04921871107134416,9.52127167046668e-05,0.012930433555407477,0.9377556426565439
449,0.052663865390511405,0.00026019705265205984,0.0009818505226907802,0.9460940870341458
450,0.0017628484118683496,0.9912849256383116,0.0016060050984047216,0.005346220851415037
451,0.0011374559934246502,0.0013174360457028334,0.00016495409943498974,0.9973801538614373
452,5.969449586854525e-11,0.9999993323311396,5.435091624694937e-07,1.2410000352767783e-07
453,3.015000573004155e-08,0.9997977088300858,0.0001998357897526906,2.425230155869255e-06
454,1.224867601083952e-09,0.9999706798979248,5.9443782128366826e-06,2.3374498994869886e-05
455,0.0001289731672590376,0.9808448570615542,0.01547184612327361,0.003554323647913267
456,2.4599112389407842e-05,0.9924716508767765,0.006959122859881894,0.0005446271509521372
457,3.0532631435623466e-09,0.9999504520193216,9.272456689370872e-06,4.027247072602843e-05
458,1.7102455771124485e-06,0.9980921737676192,0.0018929316600760364,1.3184326727672423e-05
459,0.0003064028341838877,0.9748283638194367,0.0246255812985721,0.000239652047807266
460,0.052553896433523414,0.0017726416655375887,0.0006236497941597216,0.9450498121067794
461,0.9657516928259441,0.0007118774292402333,0.0008624881564302913,0.03267394158838538
462,0.006441464786499629,0.9801457142544775,0.007448224646739562,0.005964596312283356
463,0.014625275737448458,0.00015923207881022886,0.9201890190880744,0.065026473095667
464,0.9925310710705693,0.00016075670386048375,0.004596045066879866,0.0027121271586904305
465,0.0009147580909690009,0.991874357489018,0.0017425035578697273,0.005468380862143372
466,0.04892879999945719,0.000739523640405444,0.05268067306154065,0.897651003298597
467,0.002554874816662609,2.108435093581222e-05,0.0006385554377261002,0.9967854853946756
468,0.7291545829152436,0.0003537192324700864,0.25288461162173725,0.017607086230549025
469,2.6066866580690512e-08,0.9998595323069647,5.9402276688517445e-06,0.00013450139850016733
470,0.9748988307750188,0.00018673335261074563,0.0024113029085092745,0.022503132963861232
471,3.0037750927132905e-09,2.547681587156183e-09,0.9999448484365769,5.514601196641677e-05
472,4.2474735518213725e-08,8.393763468442074e-08,0.9998267018594124,0.00017317172821727363
473,5.0783426256784066e-06,0.9964840694397217,0.0031682860148419005,0.00034256620281068495
474,0.04237303877408321,0.0029197936385272436,0.9189421733523911,0.03576499423499842
475,0.939634720215534,0.005469352130170654,0.007999281786324607,0.04689664586797076
476,5.351866123565518e-07,2.4898535992188716e-07,0.9999168781383247,8.233768970299499e-05
477,3.122083776005613e-10,0.9999850013063131,1.3097257798137676e-07,1.4867408900325287e-05
478,0.00013873386878320254,0.9814502020263803,0.016718189793711476,0.0016928743111249236
479,0.9316586906070681,0.0035602164371112094,0.017637097291698347,0.04714399566412216
480,0.00018043224826018548,4.592416484464219e-05,0.001506441377869316,0.9982672022090258
481,0.9519603095967104,9.555928921032237e-06,0.0010788769830367808,0.046951257491331486
482,0.019283618525835187,0.00036666423932298634,0.0003903835118145604,0.9799593337230272
483,3.1991880911293033e-09,0.9999122191350337,6.341474379267577e-05,2.4362921985621846e-05
484,0.9992866368449428,1.916789882885974e-06,6.456915129912438e-05,0.0006468772138754707
485,1.17159042778452e-08,1.576871756843851e-08,0.9999084619062086,9.151060916962124e-05
486,0.9425802217592033,0.005320867080763253,0.0053179423195765995,0.046780968840456766
487,0.9766053013483967,0.00017574036162205762,0.000644208806524082,0.02257474948345729
488,0.0006429612337221003,1.5642064251111207e-05,0.08809278730173761,0.9112486094002894
489,0.0029918421707416367,0.00024040846897470188,0.00013346517831920362,0.9966342841819644
490,0.05446326062852999,0.01295110351479593,0.022028203296822906,0.9105574325598512
491,0.00025400529505774724,0.04650354821682472,0.9442188553541383,0.009023591133978798
492,0.9970729799755355,2.9808378968998863e-06,0.00023311053075067247,0.0026909286558169207
493,7.139781170299129e-06,4.442008260727794e-06,0.9971387923674213,0.0028496258431476296
494,0.9526518386130123,6.206983313089078e-05,0.0003548207323641262,0.04693127082149257
495,7.06882103021501e-09,0.9998754436281475,0.00012274768288968928,1.8016201414977633e-06
496,0.9562879592170123,0.001068414305140752,0.0011840103062306837,0.04145961617161661
497,2.156535432807007e-10,0.9999781799315197,2.0041362526760093e-05,1.7784903000132097e-06
498,9.13396110276074e-09,0.9998515190223506,0.00013629886437011235,1.2172979318187875e-05
499,0.05324516151323808,0.007450095514960414,0.009691801490807093,0.9296129414809942
500,1.7696680621993132e-07,0.9994055767874662,0.0005712359916158878,2.301025411158197e-05
501,0.05257403807341357,0.0079421755420675,0.004287859396801581,0.9351959269877175
502,1.4222505550793754e-09,0.9999664328230812,9.449804897498448e-08,3.347125661955951e-05
503,0.9491458530659838,0.0009725109613033328,0.003004277111021429,0.04687735886169161
504,6.95698856951943e-08,3.8860982684834946e-08,6.057596610229847e-08,0.9999998309931655
505,0.05248691461922848,0.005417587280415959,0.0015937899724856304,0.9405017081278698
506,5.921584697251367e-10,3.8284801941631034e-10,0.9999832958280961,1.6703196897400036e-05
507,0.999645597781763,2.9323072891612166e-05,3.0264726233969724e-05,0.00029481441911142684
508,0.9517498346387991,0.0002748936133185722,0.0011048640719327815,0.04687040767594975
509,0.00039403087962229576,0.9730336995973917,0.026437278583898154,0.00013499093908783086
510,5.345385423098629e-07,0.9996145318358687,0.00016846041640620015,0.0002164732091826618
511,4.002051687586939e-06,0.997039537253171,0.0029297926637143535,2.666803142719019e-05
512,0.05250106107118777,0.004746334144020565,0.0016380494006459337,0.9411145553841459
513,1.5122524423374055e-05,0.9353032995182159,0.06456963147520614,0.00011194648215470774
514,0.9795408734795363,1.476433244077293e-05,0.010073980419689503,0.010370381768333319
515,0.003871374817499056,7.644871171301373e-06,0.9957198651932463,0.0004011151180832619
516,1.865881831527561e-05,0.9935841899492811,0.006354460162388854,4.269107001486592e-05
517,7.435774915298728e-08,1.527478335497955e-07,0.999772821555682,0.00022695133873525507
518,0.05222497338132709,0.00013335928593431677,0.0028728535807275306,0.944768813752011
519,0.9528505336567551,0.0001655900904289108,5.918466086807029e-05,0.04692469159194772
520,5.997710901282657e-07,2.679451601841859e-07,3.613263776472203e-07,0.999998770957372
521,4.4269503449252153e-10,0.9999940698418222,1.6533730914330255e-06,4.276342391291609e-06
522,0.011682297643221925,8.893039743562859e-05,0.006458813325494175,0.9817699586338482
523,0.9968710066534477,2.431733597614313e-05,0.0018993250232514232,0.001205350987324456
524,3.6806991821108905e-05,0.009555545208037943,0.9901811503282438,0.0002264974718971893
525,0.051761875170462095,0.005215340838890341,0.018507108075336516,0.9245156759153109
526,4.59205570911758e-09,0.9999332022836817,2.5196607145382378e-05,4.1596517117210787e-05
527,2.9864017153728517e-08,1.7717463990192574e-08,0.9998826763463305,0.00011727607218824493
528,0.9359306704327514,0.017131107587659834,0.015406429781314436,0.031531792198274705
529,0.9455142768410351,7.117159694669155e-05,0.007660245442991187,0.04675430611902682
530,2.8500339287006025e-10,0.9999855889211503,7.708879282462067e-07,1.363990591799071e-05
531,0.05346801108599761,0.010556284779239858,0.01418126734680218,0.9217944367879605
532,0.004108316156474912,7.981617554115497e-05,0.9309214189576736,0.06489044871031056
533,0.05262629338986584,0.0020543150477500692,0.0038902970378753114,0.9414290945245088
534,1.4679008015638095e-12,0.9999980500106124,1.5647841255860944e-06,3.852037941342457e-07
535,3.7941818326325085e-06,2.2822543963744605e-06,0.9985861622252566,0.0014077613385145844
536,0.004525712168207707,0.9837755414701969,0.003809955781743008,0.007888790579852735
537,5.3546054876428755e-08,0.9998347028967233,5.805762666601902e-05,0.000107185930555693
538,0.0017293426815758613,5.0368940483791244e-05,0.8933443068255915,0.1048759815523488
539,1.0110466135313856e-07,0.9995269957351118,0.0004572903443143686,1.5612815912567515e-05
540,0.9629816143560661,0.0003768240072653348,0.03496980669891818,0.0016717549377503473
541,2.669784602945388e-07,0.99933243655262,0.0006623378736885924,4.958595231069219e-06
542,0.9594732395959696,0.0008647059851217331,0.0012899238293073577,0.03837213058960127
543,8.127501149028803e-05,0.9502498690715313,0.0473548524389264,0.0023140034780519546
544,0.9944674040614627,8.216666083316576e-06,0.0012375893445501689,0.004286789927903816
545,0.05260845064791931,0.005879277540074345,0.002757009031687088,0.938755262780319
546,0.016963580922659618,1.4737589824183631e-05,0.026848232380530645,0.9561734491069857
547,0.0006035105152405305,0.0003622330925511596,0.9719599324256302,0.02707432396657808
548,0.00039610148340156156,0.9894964719560762,0.0016968506913808167,0.008410575869141335
549,2.0361071942804803e-11,0.999994415503005,2.9506825057803002e-06,2.6337941281684316e-06
550,0.018164997636273758,0.0001864138711626609,0.00012838284014272985,0.9815202056524207
551,0.9521919153806411,0.00028163155759902865,0.0005705077467598221,0.046955945315
552,0.013215437378047113,8.017849015545927e-05,0.05983530249655398,0.9268690816352436
553,0.9933336096170504,1.8732865761110873e-05,0.00026825646267789255,0.006379401054510799
554,5.595527199710308e-05,0.9888334137239865,0.011075828498558581,3.48025054577924e-05
555,1.0894107545249517e-08,0.999912341510675,2.1610525507611027e-05,6.603706970970092e-05
556,9.484233889968874e-07,1.4460108098238822e-06,0.9989897861257919,0.0010078194400093751
557,4.9715238059373835e-08,3.0983071800797614e-08,0.9998940248635182,0.00010589443817191894
558,1.3360672083960617e-06,2.8527154733279122e-06,0.9991635817765325,0.000832229440785817
559,0.9994601940170865,2.7010801863505817e-07,0.0004047063175664058,0.0001348295573284606
560,0.9330682426894954,0.007869572295182656,0.01164791718770594,0.047414267827616284
561,0.9436924008768509,0.005676876908449784,0.003836037382963505,0.046794684831735815
562,8.266999308347809e-06,4.95875608507051e-06,0.9969337268194981,0.0030530474251084104
563,0.05248118260420783,0.003960398837726955,0.0019338031292443806,0.9416246154288209
564,0.005861727934422342,6.271189904609811e-05,0.9928864343752232,0.001189125791308358
565,0.01016196774106253,0.951904209675114,0.035315662126956256,0.002618160456867237
566,2.4381431968323286e-10,0.9999865623429619,9.512093490414712e-08,1.3342292288908236e-05
567,0.052633706236649584,0.0073215805484276395,0.0024200237432844404,0.9376246894716384
568,6.691723368676622e-09,0.9999357367493702,2.642810559395133e-07,6.399227785034116e-05
569,0.9896786713634742,0.0038560277420386533,0.005891525976043076,0.0005737749184440984
570,3.4410799277934987e-10,0.9999831043658481,2.811334897337305e-06,1.4083955146553798e-05
571,8.865424533045085e-09,0.9999313729539755,1.7847421485651902e-05,5.077075911415805e-05
572,0.9977852230676897,3.184354341426948e-05,0.0005019224629868096,0.0016810109259091427
573,0.05369699146129832,0.007573705504947929,0.01311251919272818,0.9256167838410256
574,0.009161501970557439,0.9237456553689203,0.055330701351024275,0.01176214130949819
575,4.697435688704007e-06,0.9967122306552585,0.0030103952412474646,0.00027267666780538273
576,0.00037129044961991165,0.00014407934308327663,0.002969150490152146,0.9965154797171447
577,1.398352871027842e-05,0.9950745401253572,0.004776528763516419,0.00013494758241600215
578,0.00094849564486258,0.9976807749698459,0.0012321316417996124,0.0001385977434917499
579,0.936982092180041,0.004369240381928666,0.03477855964235421,0.02387010779567595
580,0.9733824299862454,0.0002310310862335267,0.00045735528880708865,0.025929183638714083
581,2.0129451047650064e-09,0.999946548011944,2.3842771793102745e-05,2.9607203317796176e-05
582,1.5697237660625547e-05,0.9940504600981429,0.0058183305197988455,0.00011551214439749735
583,1.0943352227686766e-05,0.9352802588796675,0.06467766614135108,3.113162675353954e-05
584,8.34101244499044e-05,0.9867498078953995,0.012482784161081237,0.0006839978190693002
585,6.808588748648402e-10,0.9999759681668153,4.327962358070928e-07,2.359835608999597e-05
586,5.984117672149449e-12,0.9999980527676657,1.8074196131132657e-07,1.7664843887561354e-06
587,0.0004285157535575266,0.9717529872240775,0.02672353956724851,0.0010949574551164635
588,0.0002449400684931326,0.9759040634331655,0.023041917214045728,0.0008090792842957034
589,1.3108753125633259e-06,8.032197674968548e-07,0.9987823003089512,0.0012155855959686069
590,8.300651412595735e-07,4.92774206720026e-07,9.37472893609889e-07,0.9999977396877584
591,0.006276799495418293,5.5944305901377944e-05,0.028366112152898908,0.9653011440457816
592,0.011105705699779245,0.0015523072821385822,0.00035173352951277614,0.9869902534885692
593,7.031376870734008e-08,0.9996037710366977,0.0002770795196593317,0.00011907912987421962
594,1.7847938456723688e-08,1.0878707654359136e-08,0.999871057172603,0.0001289141007507229
595,4.882219200876717e-09,0.9999052200894845,8.42175057901306e-05,1.0557522505981811e-05
596,7.802149868597485e-09,0.9998602961582168,0.0001244458697865299,1.5250169846589878e-05
597,0.0016397303929855896,5.353089817818737e-05,0.0006516685267651669,0.9976550701820711
598,0.9495672634512894,0.012809533233356374,0.012416183232387834,0.025207020082966426
599,0.9995214986304102,2.8398020666397052e-05,1.4871733602807747e-05,0.00043523161532060665
600,0.005887845176903733,0.0001008142053654581,0.059562419192588076,0.9344489214251427
601,6.227348337262478e-07,0.9988282460166251,0.0011476993327536916,2.3431915787519504e-05
602,3.3324480299450805e-08,2.8107881752995605e-08,0.999826786034751,0.00017315253288706015
603,2.9139016549319704e-07,1.7559269705408535e-07,0.9994437009043535,0.0005558321127839941
604,0.0015678467830763654,6.555088527826666e-05,0.0599600346669251,0.9384065676647201
605,0.00012047790455774441,3.308114299077372e-05,0.007809591789642706,0.9920368491628089
606,1.2302220129579033e-08,0.9998201509438123,0.00014834524193068474,3.14915120366945e-05
607,3.8818326741129365e-05,0.9671155797133508,0.026115689707907404,0.006729912252000536
608,0.0008671428961564631,2.937056994075316e-05,0.998176713803683,0.0009267727302198647
609,0.05241323536559904,7.213837572565791e-05,0.002216072668476455,0.9452985535901988
610,1.9944749249654954e-06,8.924177986305238e-07,1.8830387019032672e-06,0.9999952300685744
611,0.007939656438640788,0.0011507299306749905,0.9900815800948538,0.0008280335358300605
612,0.0033356731884809495,3.084852595301195e-05,0.0017253214658000963,0.9949081568197656
613,0.05279848627245596,0.007627613379075641,0.006403058183573916,0.9331708421648947
614,3.2926719089031875e-12,0.9999979891300185,7.207893821599413e-07,1.2900773067858507e-06
615,0.9958104040700899,1.6798977073594325e-05,8.055626102256594e-05,0.004092240691813782
616,0.022590938131075468,0.0015732057744386112,0.0001236054681057304,0.9757122506263802
617,1.8403106923375916e-06,0.9986079613435195,0.00015148894570876198,0.0012387094000793001
618,7.95660742163057e-07,0.9989487658701579,0.00044267675256035396,0.0006077617165396095
619,7.599304182442169e-06,0.9963160009885105,0.0036651233794458577,1.1276327861370531e-05
620,3.0574619850642e-05,0.9917896163078346,0.008034482582447641,0.00014532648986728455
621,2.4593228282420703e-06,0.9978465670831332,0.0020854253078973926,6.554828614121874e-05
622,0.00588062677510361,0.021477876347873216,0.9401372811455396,0.03250421573148374
623,2.02667357640743e-06,0.9979334523128551,0.002040222719258476,2.429829430995854e-05
624,8.060890606660389e-10,0.9999548675093637,3.344238699595413e-05,1.1689297551457946e-05
625,2.8785958249488716e-07,0.9992846956566683,0.0006266893399346253,8.832714381465319e-05
626,1.586287653266269e-08,1.8556581454455296e-08,0.9998817098414499,0.00011825573909212231
627,7.38437668408024e-10,4.5654986894669833e-10,0.9999839742881298,1.602451688261267e-05
628,0.05257287009945252,0.0014181958090981703,0.00046124521680768584,0.9455476888746417
629,0.999345929320605,8.151368034991514e-07,1.1517181061975446e-05,0.0006417383615297251
630,0.05498545739668575,0.010650381042916263,0.021452410715092515,0.9129117508453054
631,6.104854499629881e-09,0.9999206943231387,1.6774591486348194e-05,6.252498052061053e-05
632,0.0005624171280902051,2.359375395097247e-05,0.09603058731810452,0.9033834017998542
633,0.035965370392727534,1.841256708830015e-05,0.9268467316043513,0.03716948543583308
634,0.9232860069744867,0.001956492817546546,0.0368340871858335,0.037923413022133035
635,1.856997470176918e-08,2.782921577113095e-08,0.9999077193754796,9.223422532993182e-05
636,5.614683160934093e-05,0.9875021616187674,0.01006307016303981,0.0023786213865835777
637,0.9617002414419116,0.008157900817704653,0.0015547497691534168,0.02858710797123052
638,0.9346906543275723,0.002777478119379679,0.035874595462657796,0.026657272090390354
639,2.7720899125760825e-12,0.9999973808302169,1.8487903106379712e-06,7.703767004167972e-07
640,0.006776821509312483,0.976134438649513,0.012199638390651293,0.004889101450523022
641,1.5517515478979008e-05,0.0688515387573364,0.9309004369884888,0.00023250673869586088
642,0.9639310382197712,0.0008287554358727158,0.0015934067611913507,0.033646799583164945
643,0.9956938513725908,0.0002178247452843946,0.0006551466786925167,0.0034331772034321304
644,0.00016025649070244147,0.9830226208635051,0.016538709278895513,0.000278413366896721
645,0.9355680077290343,0.005293974705145054,0.011794415362789445,0.04734360220303132
646,3.009383861261554e-10,0.9999851000185236,1.2508119045400727e-05,2.391561492817538e-06
647,0.00307182871173769,2.2081072354211812e-05,0.006341293214949457,0.9905647970009585
648,0.0003266831895655228,0.9899007522617835,0.001723201853962645,0.00804936269468813
649,7.682375761047407e-10,0.9999548632998735,3.591078755744707e-05,9.225144331576764e-06
650,0.9875437467435652,0.000153462222975081,0.00018575571057365958,0.012117035322886115
651,4.6265081850412305e-08,0.9996409336849514,0.00021194414011336873,0.0001470759098533504
652,0.9756133931205015,0.0005828114976928768,0.02347643028231802,0.00032736509948754335
653,5.118422843088178e-06,0.9967645365753232,0.0032035655000501803,2.677950178348673e-05
654,0.009768383827113241,0.00023822911824596184,0.00022738595953207755,0.989766001095109
655,0.05265472996151857,0.00033872212381743977,0.0001768419066716408,0.9468297060079924
656,5.573780535368381e-09,0.999907666848046,2.6821076317063572e-05,6.550650185654863e-05
657,5.1740351417217595e-12,0.9999965716556559,2.637439811906408e-06,7.90899358240181e-07
658,6.540985265929414e-07,0.9987899418953843,0.0011731759372582639,3.6228068830991694e-05
659,2.979698915562234e-11,0.9999947028817427,1.383173435111728e-06,3.913915025150076e-06
660,1.639219385811201e-08,9.467430244938696e-09,1.8011392960598407e-08,0.999999956128983
661,1.592267347559119e-07,0.9994133505229322,0.0005699399266746565,1.655032365833671e-05
662,0.00015991307567042793,0.9332786593859376,0.06451201248532336,0.002049415053068515
663,0.0005512628725584553,0.9302660344695076,0.06245905599415428,0.0067236466637796526
664,6.755141824418463e-07,0.998703736247264,0.0008428626972186342,0.0004527255413347835
665,3.77476717407977e-08,0.9997375061092872,0.0002403121396106176,2.2144003430596996e-05
666,0.01154418489629125,0.006313054697543406,0.05911067716754781,0.9230320832386174
667,4.856949574337265e-07,0.9989239800418058,0.0009886588498649264,8.687541337172933e-05
668,0.0004136548584918933,0.9682961143424011,0.03117745880523856,0.00011277199386839303
669,6.27421633197538e-11,0.999994487884776,9.956299429205407e-08,5.412489487544076e-06
670,5.6873602811763914e-05,0.9352736383694726,0.0645587833949926,0.00011070463272297867
671,8.447955331514693e-07,0.9985850857824972,0.0012974395388315532,0.00011662988313809539
672,3.442717014422922e-10,0.9999799254851905,7.362813061213982e-06,1.2711357476471389e-05
673,0.008999636304958156,2.0410993193653046e-05,0.00274329645057911,0.9882366562512692
674,8.892066640062438e-05,0.9857978254577765,0.013923867941322469,0.00018938593450025366
675,0.05350211625790984,0.005073238235388509,0.011524513673097078,0.9299001318336048
676,0.9979599604856476,2.5049600458959774e-06,0.0016349617728823342,0.00040257278142400766
677,0.9486993326909544,0.0020005355560610487,0.002529211798214826,0.04677091995476954
678,3.640159297670976e-11,0.999995435000475,9.99742165016437e-08,4.464988906821545e-06
679,0.99869506449314,7.38793812058586e-05,0.0010113369969322397,0.0002197191287218161
680,7.351821485360964e-07,4.466841434093151e-07,8.380998647386176e-07,0.9999979800338433
681,6.930282846527207e-07,3.890962596909529e-07,7.610061718632835e-07,0.9999981568692838
682,0.05487258496797089,0.011316963011018973,0.021182429947230803,0.912628022073779
683,0.019104778784852824,0.0005634207285259981,0.05668544998109692,0.923646350505524
684,3.157723178661087e-07,0.9998202060928665,0.00016268804960334766,1.679008521246127e-05
685,3.9460591201936e-08,8.146993987833505e-08,0.9999014251454919,9.845392397699482e-05
686,0.9787138199986413,0.0002662254077179537,0.0002544744660755366,0.02076548012756536
687,6.682592611735136e-07,0.9992345830441357,5.615093052638347e-06,0.0007591336035506082
688,0.9926162096859773,0.0004199918468255649,0.004342709448637817,0.0026210890185594917
689,0.00023514382495599102,0.9767198003169854,0.022970763594763206,7.429226329565393e-05
690,7.215661823687336e-05,0.9633208169355374,0.03454440520934013,0.0020626212368858796
691,0.9989429329769044,4.849014819335076e-06,7.863039897246742e-05,0.0009735876093038125
692,0.9436483818050722,0.0037025250672697817,0.005845577203643362,0.04680351592401453
693,0.0005660999306714394,0.00013169523431209819,0.05997976479835557,0.9393224400366612
694,0.05262052394089174,0.0002379828079558829,0.0001384830647427068,0.9470030101864096
695,0.0013907805031432615,0.00015401681236292238,0.05299776229356328,0.9454574403909307
696,8.412903243534278e-05,0.9453090751699932,0.05450327431639619,0.00010352148117514586
697,0.004174884999907946,0.9940305825320199,0.0008976348998914126,0.0008968975681808923
698,1.0722943484110659e-06,6.212576054609743e-07,1.1987043538995988e-06,0.9999971077436922
699,4.5856580643738165e-07,6.94936555565988e-07,0.9998168748074002,0.0001819716902378651
700,1.4356653218123241e-05,0.993815568075399,0.005313038518694056,0.0008570367526889954
701,0.04268622551074747,0.008897475551505126,0.013890501354705563,0.9345257975830418
702,0.9403951322683797,0.0008279597097054313,0.011713516629260378,0.047063391392654384
703,0.0009904953635053249,2.949034143938467e-06,0.9950334929645306,0.0039730626378200904
704,0.9981499969144438,3.639911077748743e-06,0.0006353694872819865,0.0012109936871964036
705,0.0039748117126816316,1.7781154145625858e-05,0.019470928441846606,0.9765364786913261
706,0.9997497938433865,1.0152875684034107e-06,2.4534982041170354e-05,0.00022465588700389518
707,0.00048624669306528823,0.00010463792022910577,0.7750445274569985,0.22436458792970698
708,4.678316516214968e-09,0.9999184829715111,3.223202091371353e-05,4.928032925866573e-05
709,0.9996028883571626,2.4470568334655943e-05,4.610935117610163e-05,0.0003265317233266855
710,0.9729902701856323,0.00701610340086804,0.014413265995985344,0.00558036041751423
711,6.67083277201834e-07,0.9988176567174258,0.0009473360059257693,0.0002343401933710104
712,0.993518295460101,2.993845525969167e-05,0.0017131650996520483,0.004738600984987173
713,1.2506210593819036e-07,0.9994647542140462,0.0004196826395080395,0.00011543808434000708
714,0.026876048864586003,0.00047850847907946554,0.050525174307826826,0.9221202683485078
715,6.802521507897545e-07,0.9987566355600285,0.0012004050405035054,4.227914731703561e-05
716,0.05375083476454035,0.00809220295484314,0.013498108656552377,0.924658853624064
717,1.6414650149140527e-07,0.9993929073913365,0.0005741993510959825,3.272911106616317e-05
718,8.375488458813978e-06,0.9653070211654056,0.034406470876971455,0.00027813246916415674
719,0.005991573554965614,0.0048185772052493706,0.9245270518113311,0.06466279742845359
720,2.0691038007175307e-05,0.9936168031824092,0.006218794889256406,0.00014371089032710988
721,0.0014704507366652276,3.198107751399043e-05,0.059970390798229085,0.9385271773875916
722,0.0046203052106727404,0.9855666370887892,0.0020407222287556195,0.007772335471782513
723,6.234470679075113e-11,0.9999937864855887,9.848903758830654e-08,6.1149630289798215e-06
724,4.994105930193621e-08,0.9996717083502297,0.00032226384538749746,5.977863323673644e-06
725,0.00019285591239385168,0.9778192098056401,0.01967356769550193,0.0023143665864641975
726,8.107840075059171e-05,0.876932068056299,0.12286693185179597,0.00011992169115459665
727,1.3364415000968953e-06,7.085424391928286e-07,0.998903677550736,0.001094277465324717
728,0.00031486265771626763,1.3122328722888032e-05,0.0039919219638375495,0.9956800930497232
729,1.1304798452982963e-12,0.9999990210479754,9.611884855684207e-08,8.828320454443192e-07
730,8.514149057326105e-05,0.9317576942464868,0.06436567701845523,0.0037914872444847775
731,4.637513994059671e-08,2.8059240145924266e-08,0.9998590467989925,0.0001408787666275063
732,0.053918557529626016,0.013892919991273886,0.023565680754493536,0.9086228417246067
733,0.05490143344087898,0.011417832099103357,0.0214707811633769,0.9122099532966407
734,0.006523591462694604,1.726166703912465e-05,0.992370806644483,0.0010883402257832891
735,0.9988152410884841,7.539648455805496e-05,4.8984117592257496e-05,0.0010603783093656245
736,0.9978011627154242,2.057019792670895e-06,9.182621900680295e-05,0.0021049540457763185
737,0.005184674406274096,0.006987975331539964,0.9869766354750513,0.0008507147871347407
738,2.182658522518705e-07,1.2454833980588832e-07,0.9997057861368175,0.00029387104899038317
739,0.9322903627977577,0.005801892570454424,0.014374553958062522,0.0475331906737254
740,0.0018783610528798687,1.0855606854830177e-05,0.0008157814558007421,0.9972950018844645
741,2.7051456795375987e-09,0.9999267235471491,5.03108467077266e-05,2.2962900997755186e-05
742,0.9417425942192861,0.003199120690258226,0.008058470204518636,0.04699981488593703
743,0.9944765486820955,0.00027646765730644627,0.0021393042236699123,0.0031076794369280084
744,0.001077057416837361,2.992971140121794e-05,0.9987568152339941,0.0001361976377674475
745,1.1463663568086041e-10,0.9999877822233408,7.992314091271005e-06,4.225347931345882e-06
746,2.460237825027287e-08,0.9997641567823518,0.00021764871236712032,1.81699029028724e-05
747,0.9980049940997152,1.8804697496706163e-05,3.4466037052206835e-05,0.0019417351657359816
748,1.108990777259258e-06,6.890353718287301e-07,0.9995963505870237,0.0004018513868272896
749,1.8153821395342632e-07,0.9993755093520482,0.0005872229463322677,3.708616340563129e-05
750,4.3510390201101795e-06,0.9970579313813602,0.002926607807226771,1.1109772393077367e-05
751,0.010274186368270027,0.0023193155631783223,0.0003541123979761092,0.9870523856705756
752,0.017758395770119284,6.283987403436573e-05,0.0008713786346647833,0.9813073857211817
753,0.9363933857824398,0.007082605817359421,0.009382713479726404,0.04714129492047433
754,7.692576510404301e-06,0.9968241946015336,4.690187921415818e-05,0.0031212109427417407
755,8.473335032294911e-09,0.99990423943512,5.102001032566009e-05,4.4732081219558813e-05
756,0.9728485655215472,0.00548248432463766,0.020147684333166934,0.0015212658206483012
757,4.906451310988589e-05,0.9395352551057854,0.05659947799596038,0.003816202385144306
758,0.9363307852171296,0.005678489659652507,0.010876859549093598,0.04711386557412409
759,0.9352510089644174,0.0054729769914150265,0.011903135682600628,0.047372878361566804
760,0.9994793600210486,4.3822135387257254e-05,6.352632466797538e-05,0.0004132915188962071
761,0.00015730515036264055,0.9810542383376469,0.018750413570983986,3.804294100632486e-05
762,0.9947919299327367,3.7834840973905474e-05,0.004642885487551859,0.0005273497387375764
763,0.010575398097481052,0.002053707093617009,0.00132661995172901,0.9860442748571728
764,1.4031031509780176e-06,0.9982154120492102,0.0016654109665000265,0.00011777388113870703
765,2.615917452159255e-13,0.9999994654140701,9.44668461391405e-08,4.40118822033401e-07
766,0.052948305082539955,0.0012797983260518463,0.007594779102467961,0.9381771174889401
767,0.9973308653616685,1.9098338889261623e-05,0.002123956000015173,0.0005260802994272592
768,0.019499249473406272,0.004970818654189603,0.05983952099534452,0.9156904108770598
769,6.243670779111422e-05,0.9881874543753724,0.011741013759120102,9.095157716444429e-06
770,3.1335277379839115e-08,2.3720984693070603e-08,0.9998287022799501,0.0001712426637877748
771,0.004654020688146488,9.234249685682091e-06,0.045898739607718037,0.94943800545445
772,0.9735468761969,0.00018316067344972847,0.02407209731038186,0.0021978658192685022
773,0.9619297930702914,0.001277340537044296,0.0349725238236045,0.0018203425690598365
774,1.593049962311649e-06,0.9981430074872999,0.0017939427313172517,6.145673142037989e-05
775,0.9725539977453546,0.0009810686143221356,0.012002136897649746,0.014462796742673745
776,3.1150195848955643e-09,1.7945150346227217e-09,0.9999589623375348,4.103275293066999e-05
777,9.650303536876092e-07,1.005106735529624e-06,0.9997730083864258,0.0002250214764849679
778,0.9656737728783876,0.0003200201029507431,0.0010582514138822265,0.032947955604779276
779,2.7989608182072373e-10,0.9999735788631717,2.3672905243726272e-05,2.7479516882982728e-06
780,9.12802128367408e-06,0.05750491730009981,0.94231798220662,0.00016797247199637895
781,1.203384937439267e-08,0.9998411402385529,0.00015612276455823586,2.7249630395243443e-06
782,2.5442456663569977e-06,0.99803564314393,0.0008781411308835244,0.0010836714795201385
783,5.1749021582400246e-08,0.9996442537473916,0.0003238420292589377,3.185247432803449e-05
784,1.7740804815734736e-08,1.6657379719890966e-08,0.9998669133916162,0.0001330522101993874
785,0.010606057401729848,0.0003793532619904842,0.05844604638788105,0.9305685429483986
786,1.11303029481902e-08,0.9998741223477526,3.166209160868283e-05,9.420443033545418e-05
787,0.9974255972181221,2.111958447844829e-06,0.0020722651971872134,0.0005000256262428052
788,0.9472794152461496,0.0011923545379277777,0.004712803982184731,0.04681542623373782
789,1.003104151091099e-07,0.9997822754947311,1.946350361568865e-05,0.000198160691238043
790,8.362728319565761e-09,0.9999867982162751,1.1261029219123387e-05,1.9323917774586955e-06
791,0.012274224889520978,0.0002185968801019928,0.00011429736869884119,0.9873928808616781
792,0.012005877650479673,4.625587954164256e-05,0.9797097593323119,0.008238107137666772
793,8.30358193556321e-07,1.0241900476696751e-06,0.9990172641957226,0.000980881256036112
794,0.001081918374932687,1.2005363596167158e-05,0.9946391090840907,0.0042669671773802546
795,0.934835587496129,0.0019323894712017149,0.036164677176749614,0.027067345855919578
796,1.3797089895208612e-05,0.9942914638086466,0.005383317867101035,0.00031142123435724724
797,7.314747048108504e-07,3.304115533761999e-07,0.9999454809281937,5.345718554810269e-05
798,6.077118483901725e-08,0.9996192747412164,0.00035630488899852453,2.4359598600341182e-05
799,1.5897575782045367e-10,0.9999943080758673,3.3930231579570413e-06,2.2987419990857296e-06
800,2.804075297829908e-05,0.9921960333585604,0.007570777087270806,0.00020514880119047992
801,0.764789008849379,0.000491104057232166,0.007592062016125755,0.22712782507726334
802,1.8364629458129097e-06,7.68621710591593e-07,1.1779584639237116e-06,0.9999962169568798
803,0.9861926673437846,5.9592837286050735e-05,0.00032762017006889856,0.01342011964886048
804,0.05252053934133586,0.002233643783703567,0.0006680977715252517,0.9445777191034355
805,4.460140259909539e-07,2.76860183648922e-07,0.9993111000902241,0.0006881770355662443
806,0.010906152552108365,0.9512183418902548,0.02555605068869009,0.012319454868946866
807,6.434476491482277e-06,0.9962059071072956,0.003720788403996856,6.687001221581055e-05
808,0.035734721420554165,0.002525196018270147,0.005745192021961168,0.9559948905392145
809,0.9995916192262818,1.2178131803142394e-06,1.7498448185944616e-06,0.0004054131157195253
810,0.04614826068653574,0.0024404162876907336,0.017855770656461743,0.9335555523693118
811,1.0457137961705738e-09,0.9999826715470435,2.1851917158738732e-07,1.7108888071161696e-05
812,2.709866608649001e-07,0.9998378183108382,9.211877990816834e-05,6.979192259298525e-05
813,0.998045913756934,0.0003695596394860607,0.000834876051095103,0.0007496505524848441
814,0.9729002405618098,0.0005041575081488364,0.0015373233123271938,0.025058278617714234
815,4.962463771774948e-06,0.9968669762609627,0.003011697763462262,0.00011636351180336138
816,0.05251030348039256,0.0018389340594804353,0.001825391162774106,0.9438253712973528
817,0.996419939419194,9.585321761720341e-06,0.003272059903481881,0.0002984153555624266
818,0.05260153201018042,0.00042114076644222487,0.0007068588683468946,0.9462704683550306
819,0.018333543541312548,0.0019236259172374858,0.9152005728179659,0.06454225772348407
820,1.097644888886528e-05,0.9352884838750306,0.06466169863259917,3.8841043481372274e-05
821,0.005112787812629704,0.028089072325670088,0.9221647999526674,0.04463333990903277
822,1.058393654181709e-08,0.9999458620835111,2.7313579978190036e-06,5.1395974554484074e-05
823,7.12343508263695e-10,0.9999770884643633,3.950705826783341e-06,1.896011746638795e-05
824,0.008837193249837982,0.06825107162896463,0.9215112171347493,0.0014005179864481421
825,5.057387648188442e-05,0.9893778957793148,0.010543206321326347,2.8324022876863186e-05
826,0.004055140406255233,1.494259878109848e-05,0.931076206644352,0.06485371035061176
827,0.0018083135349277527,4.510999077396807e-05,0.010893632017830165,0.987252944456468
828,0.0015711633216159457,0.021101441606130363,0.9762298460883515,0.0010975489839022026
829,7.889913010160665e-08,8.857011018616959e-08,0.9996690960018848,0.0003307365288748689
830,1.4482622838431737e-06,0.9980705580321914,0.0017040793275280915,0.00022391437799664432
831,0.00030582811369367336,0.021310806306548205,0.9782363368381671,0.00014702874159101435
832,0.984772494340714,2.7586579622185334e-05,0.004515249583591054,0.010684669496072916
833,6.205470626825836e-07,0.9689174223300002,0.031063515431251604,1.8441691685535266e-05
834,0.9843277133889612,0.002090535485261615,0.0007918146425609673,0.01278993648321609
835,0.005897717734624795,0.00011147894228510557,0.9844618785782964,0.009528924744794037
836,1.0283840823678242e-05,6.233571831758474e-06,0.9966693959915122,0.003314086595832384
837,0.9284507187010288,0.006967640253164597,0.016953318672374554,0.04762832237343228
838,1.023959745857861e-08,9.734618251253896e-09,0.9998899606638124,0.00011001936197169982
839,1.2619374417771184e-08,0.9998960351624107,2.2985078764595372e-05,8.096713945032418e-05
840,0.05491498937432665,0.011448069897048437,0.02161663768095538,0.9120203030476693
841,0.968082117269578,4.33558230415981e-05,0.012705191334663125,0.019169335572717487
842,0.9337639114912692,0.004268200476353301,0.03578978247973379,0.026178105552643664
843,0.9501314882203271,0.001876611884011593,0.001142734815385578,0.04684916508027599
844,4.597573717700464e-07,2.815176545161018e-07,5.257782564833336e-07,0.9999987329467173
845,3.212502260339818e-05,0.00012002912214031823,0.0023019725866470432,0.997545873268609
846,1.3957165390118834e-10,0.9999845268257347,7.952950717323961e-06,7.520083976208027e-06
847,0.00017797621231842152,0.9818287730957989,0.017802043829930673,0.00019120686195197746
848,0.05265415869821031,0.0003204552864865745,0.0005514926198141724,0.9464738933954893
849,0.9516414383447444,0.0003453978798508142,0.0010934599755012253,0.04691970379990394
850,0.9964590371313731,0.00012180202330875534,0.00030807152505183544,0.003111089320266439
851,0.01555399377515493,0.21276343824756416,0.7480300344230902,0.02365253355419057
852,0.001099852805480607,9.640129995049278e-05,0.0012992625084228763,0.9975044833861457
853,1.4221519851184966e-06,0.9982253080956954,0.0017424220709802104,3.084768133927169e-05
854,8.230579635047926e-09,5.216055856578513e-09,0.9999443282933267,5.56582600379094e-05
855,0.9324329669893848,0.007652619683572609,0.01237143649919964,0.04754297682784309
856,1.4463735779266467e-05,0.9943208768821059,0.0054814771540644975,0.0001831822280505874
857,0.986596574783066,0.00017297188768151608,0.0003913743969336749,0.012839078932318665
858,7.86454508004078e-06,0.9422487102793661,0.05768001352763477,6.341164791889442e-05
859,0.9524123054782672,3.3239667502821345e-05,0.0006725709255027314,0.046881883928727386
860,0.0063420125335833105,2.6774080653994715e-05,0.059608986660591244,0.9340222267251714
861,2.796219481897384e-05,1.685055918571618e-05,0.9943167863107115,0.005638400935283812
862,4.266823519965125e-08,0.9997007651671576,0.000276672783776805,2.25193808304434e-05
863,0.00028169265564641227,0.00016755746189300934,0.981388698413386,0.018162051469074517
864,0.03186585179222354,0.003781441842458864,0.004816954236200049,0.9595357521291177
865,0.9521033699951982,0.013865425871534795,0.007719522431857936,0.026311681701409073
866,0.0018996630524003779,1.8785469294515155e-05,0.0023747940750910084,0.9957067574032139
867,0.029127528676736885,2.051400201907944e-05,0.0010068144399841175,0.9698451428812596
868,0.990393618867554,0.00010937387209146848,9.535672427160398e-05,0.009401650536083057
869,0.0033449776451860767,0.9895688584461494,0.0013011549312073524,0.005785008977456983
870,7.869319728500356e-05,4.77182515937222e-05,0.9903229878676514,0.009550600683469974
871,4.10389131131775e-06,0.9623474655866013,0.03727627760948278,0.00037215291260444004
872,0.003025353254070383,1.0352392337696392e-05,0.05985408089595582,0.937110213457636
873,9.513612006346341e-05,0.9855209778268935,0.01431262977317079,7.125627987215952e-05
874,1.3985121835118949e-10,8.813469212198009e-11,0.9999887185602562,1.1281211757948935e-05
875,0.053075425089188395,0.007046982833570803,0.008139153513874488,0.9317384385633666
876,0.9245302037859274,0.00656622116436276,0.021858229543849524,0.04704534550586026
877,5.112946592821501e-08,0.999713790375683,0.00019553349491185752,9.062499993905847e-05
878,5.327763964508773e-07,3.257576235240793e-07,0.9993615870545002,0.0006375544114797973
879,0.05454137683059157,0.010026957185742228,0.01864455374985092,0.9167871122338153
880,0.019813866393547944,0.00028309762638663874,0.00024954095016149297,0.9796534950299036
881,1.2403132488288262e-10,0.9999892457100222,7.684828846747853e-06,3.06933709970221e-06
882,1.3307702496901508e-06,0.9982866775938648,0.0016891370009184592,2.2854634966819943e-05
883,0.05493834879307568,0.011483014274637032,0.021889994884605135,0.9116886420476819
884,0.019363150378186787,0.00017769158504679161,0.0027460626447972647,0.9777130953919694
885,2.3111391553905296e-05,0.993383835438559,0.006256066191426936,0.00033698697845991216
886,0.0015389652208848792,0.0011795733548708165,2.6231347294090113e-05,0.9972552300769502
887,1.1397198554200938e-06,0.9982175157782522,0.0013746503661654402,0.000406694135726898
888,1.3097163611919646e-09,0.9999449728070582,5.2470758201087354e-05,2.555125024474337e-06
889,2.2760921513768271e-07,1.283244291981382e-07,2.503482810898775e-07,0.9999993937180746
890,4.7682924187066354e-07,1.0234803754506572e-06,0.9996623016141931,0.0003361980761896586
891,0.9966860942618754,2.5668496504654053e-05,0.000122446689106334,0.003165790552513546
892,4.728009190070483e-05,0.9908749642588601,0.008060042515900808,0.0010177131333383043
893,1.1910829525776444e-06,6.731355183339577e-07,4.6130480616850714e-07,0.9999976744767228
894,2.817176355295024e-07,1.738942026488169e-07,0.9994348342177288,0.0005647101704330357
895,8.44711304466576e-08,8.20476399581631e-08,0.999713664048796,0.00028616943243354076
896,0.0005805415337965591,0.0001059168725608364,0.8696766893360748,0.12963685225756771
897,0.05373757965853278,0.008994435306163923,0.01386516726098145,0.9234028177743219
898,0.0033235450614848973,5.054454225225268e-05,0.007566066498262539,0.9890598438980002
899,1.262915293021294e-08,0.9999167720434416,1.287554363146744e-05,7.03397837738939e-05
900,0.0026701062162480123,0.00044900450619971005,0.0010366244516077977,0.9958442648259443
901,3.799411248955223e-07,8.107656075333896e-07,0.9996140154414008,0.0003847938518668691
902,0.9987499837279141,9.910556839560755e-07,0.00018529044432533625,0.0010637347720765904
903,1.4096207237295626e-09,0.9999689117559315,5.42977580649095e-07,3.054385686696936e-05
904,0.9728423446483905,0.0013576335580186211,0.012353492757779836,0.013446529035811153
905,0.0001561412159737845,0.981445033501933,0.018307755534123123,9.106974797008445e-05
906,0.00254955077882839,6.971426771499232e-05,0.0006958482437110996,0.9966848867097458
907,0.004764751084441356,0.9942309973194651,0.0007243894279042297,0.00027986216818933564
908,0.9292490651874439,0.0038746827690580347,0.019741830488130056,0.04713442155536791
909,0.04889906700612545,0.00016425334687678134,0.01956378534281425,0.9313728943041836
910,3.407409941559824e-09,0.9999113637066126,7.805808657157619e-05,1.0574799405805541e-05
911,0.9570421594656465,0.0014439469497091726,0.02345066797548715,0.018063225609156897
912,7.345800065337875e-08,0.9997818620131512,4.1898170010573034e-05,0.00017616635883762515
913,9.53242645286627e-06,0.9954298657687038,0.004479632174992372,8.096962985087095e-05
914,8.407768901437899e-05,9.165622508674343e-06,0.002464003145661116,0.9974427535428158
915,9.641822877283635e-09,0.9998687351294215,7.763467236351637e-05,5.3620556392135935e-05
916,0.04093964336045506,0.004828976336527044,0.9206892922564968,0.03354208804652111
917,0.05490807945937147,0.00866964543975498,0.01906541361804569,0.917356861482828
918,0.053517340695884964,0.01024695770709742,0.013369541498700607,0.922866160098317
919,0.9438454616689219,0.013443183826261222,0.01659743150181067,0.026113923003006457
920,0.04640331304846019,0.0002038597115112907,0.020217895448022643,0.933174931792006
921,0.05456033199200341,0.0027947984052982054,0.01644278850415823,0.9262020810985404
922,0.008981186613825356,0.00132545277200052,0.0020148012040515817,0.9876785594101223
923,2.1868420928885915e-06,0.9979968061892357,0.0018870751343336351,0.00011393183433771673
924,0.0005848472663959804,0.9345128488849518,0.06457419685244768,0.00032810699620460795
925,2.832446085074289e-08,0.9997294069667915,0.00022824370807224538,4.23210006753872e-05
926,0.9588356652199206,0.0008484500102411777,0.03262032760303668,0.007695557166801779
927,1.2831696292319478e-12,0.9999990279962578,1.1255942997983763e-07,8.594430292107072e-07
928,1.303219065039556e-05,7.906958963960602e-06,0.9961074292871802,0.0038716315632054223
929,0.9960436834675884,6.954047901849414e-06,0.001457669444449137,0.0024916930400606017
930,0.052580088651467356,0.008191819709828489,0.0022840608234536344,0.9369440308152505
931,0.04243299507622774,0.006067891501268514,0.0059268548738792256,0.9455722585486245
932,0.9952329019404229,7.777128894896055e-05,8.332354341962155e-05,0.0046060032272087405
933,0.0031695566212105843,2.8226673302265782e-05,0.0061948649893903635,0.9906073517160969
934,0.9524043856975575,5.2375525379769914e-05,0.0005642250666958836,0.046979013710367085
935,5.86334028282628e-07,3.5658675172368903e-07,0.9991872647902328,0.0008117922889871228
936,0.9522051724143272,0.0002891188139097401,0.0006411251312459946,0.04686458364051702
937,5.673919399201502e-05,0.9893556125349092,0.004860665045630051,0.005726983225468843
938,2.1505366923338474e-07,8.95023547869133e-08,1.3185677502825847e-07,0.9999995635872009
939,0.007607460695186448,0.00046336610929948276,0.7921389349796415,0.1997902382158727
940,4.2991862134781665e-05,0.9913074494260087,0.008627121215765232,2.243749609125605e-05
941,0.05250907910400409,0.00025981971239769113,0.009623749254736563,0.9376073519288618
942,1.842076866634996e-07,1.1356354564763979e-07,0.999570426418843,0.000429275809924662
943,0.9999218826437822,2.02589496833999e-06,2.072890168904451e-05,5.536255956033759e-05
944,0.019879964141070388,0.004408690244993692,0.018991385838409553,0.9567199597755265
945,4.3016676160508534e-07,2.6421779314766056e-07,0.999449273133496,0.0005500324819493245
946,1.1530995273446233e-05,0.9346511596436776,0.06461178121836597,0.0007255281426831349
947,1.814055881685723e-08,0.9997791268329715,0.00017663330923710406,4.422171723252085e-05
948,0.002208101380575446,1.6987157477571167e-05,0.005848893732831616,0.9919260177291154
949,0.0003020494049018692,0.9743105414789414,0.024914592653042116,0.000472816463114726
950,0.9315308759929675,0.0010958587528860587,0.01976142042145751,0.047611844832689175
951,1.9655562915174223e-07,0.9994143803937967,0.00017932904794627213,0.00040609400262782164
952,3.963196963302792e-05,0.9340115681254991,0.06449900383652427,0.0014497960683436115
953,7.601065376862796e-05,0.9869936584346523,0.012798498946744228,0.00013183196483499164
954,0.0031961709110834846,0.0001316527769450805,0.9947983303284537,0.0018738459835176723
955,0.0006609281087931794,7.856774600310789e-05,0.014984107312680748,0.9842763968325231
956,2.7732920440282893e-06,1.5774374088840956e-06,1.1266339215109174e-06,0.9999945226366256
957,4.9089754706140795e-06,0.9973948748328748,0.0008089433645203157,0.001791272827134266
958,6.7349573657435144e-09,4.538894344452807e-09,0.9999338130000013,6.617572614704994e-05
959,0.9622011566336051,0.006349200408948228,0.017286014179783187,0.014163628777663641
960,0.0006711443516426116,2.3373733149660774e-05,0.9343055718053355,0.06499991010987206
961,0.9899371573682807,0.0003922001885154121,0.007837295544934297,0.0018333468982694408
962,0.0015867559526274641,1.6275677347041333e-05,0.004702097345900179,0.9936948710241251
963,0.9299691886670084,0.007974960146015024,0.02770588517511767,0.034349966011858885
964,1.0906431616600179e-08,0.9998313404658281,0.00014557505341875632,2.3073574321360256e-05
965,0.0551306463072529,0.010022056910424241,0.021114142423093746,0.9137331543592292
966,3.050597371006394e-07,1.219377457511352e-07,2.550092252085351e-07,0.999999317993292
967,7.972375587007667e-10,9.196756527374794e-10,0.9999711925400994,2.8805742987408044e-05
968,0.001668806438939676,0.986565939267212,0.0030527181997231697,0.008712536094125275
969,0.0003993851537343302,0.9704686560229179,0.029008215097962458,0.00012374372538539574
970,0.9386079534325844,0.0024936572869768505,0.011848662665823252,0.04704972661461559
971,0.0517325940605422,0.0004394586361540706,0.0031825266265095827,0.9446454206767942
972,7.484471830044579e-08,0.9995598067375537,0.00036811645593310283,7.200196179471766e-05
973,0.0027348475326193205,1.5371335944313647e-05,0.0016123124850947609,0.9956374686463416
974,0.0526378784123367,0.005126727943487529,0.003858318997265679,0.9383770746469101
975,5.91700410911654e-07,0.9988041481482448,0.001102989727765854,9.227042357842264e-05
976,0.9469991840907975,0.0018566009195388011,0.0043820706849507516,0.04676214430471274
977,3.1423118815318498e-09,3.2399716033014764e-09,0.9999349470729384,6.504654477803945e-05
978,0.9527599962709928,9.85472247819991e-06,0.0005192254684801476,0.046710923538049086
979,2.8587748697076872e-09,2.118289408087501e-09,0.9999472523709624,5.2742651973420446e-05
980,1.5856787058924438e-05,0.9948012885759866,0.004665031669984649,0.0005178229669699152
981,0.9740993794985696,0.0030774383999236893,0.004749153131017245,0.01807402897048924
982,5.693670961592519e-07,0.9993791026870751,3.206640675817976e-06,0.0006171213051528796
983,0.9529076677134206,0.00010956091384494029,7.276467047601368e-05,0.0469100067022586
984,6.509939723850303e-09,0.999869133497679,0.00010983494584422639,2.102504653700688e-05
985,1.9749903582104866e-07,0.9993524742171104,0.0006446940686642688,2.6342151893096745e-06
986,0.0001131976648536425,0.9829898053873583,0.01554081871870832,0.001356178229079905
987,0.03798348445463063,0.0024668230847729278,0.957249311102082,0.002300381358514445
988,0.9815485585977781,0.00021674607511998584,0.00026837277794366176,0.017966322549158222
989,3.259248811521554e-05,0.9915384707098397,0.008375571026295488,5.3365775749443417e-05
990,7.147515055239692e-10,0.999967851877779,1.46117090382482e-05,1.7535698431270403e-05
991,0.00011536847417651089,4.1278138941141754e-05,0.0024110373054173372,0.9974323160814649
992,7.422139880816508e-08,0.9995802025712789,0.0003930181223358196,2.6705084986496345e-05
993,2.961313844656681e-10,0.9999868911609482,2.554349866017662e-07,1.285310793378229e-05
994,7.525860857841493e-05,0.9351282618978417,0.0645664389055378,0.00023004058804258713
995,0.01998210593347786,0.009304949841871952,0.9593168648038696,0.011396079420780882
996,0.003209532785071338,5.5882867091097434e-05,0.003327213648261139,0.9934073706995765
997,2.5623327843463177e-09,0.9999511631028768,1.2488439849292752e-05,3.634589494103148e-05
998,5.817634296209732e-06,0.9475057913906793,0.05244296247640378,4.542849862104536e-05
999,0.9338240916249096,0.016805067425129126,0.016457594128959144,0.03291324682100172
1000,9.105094339770452e-11,8.58732161105142e-11,0.9999919775087311,8.022314344667062e-06
1001,7.006568555367596e-06,1.1630459205969333e-05,0.9983661446086157,0.0016152183636229396
1002,0.001692438451102007,0.00014280709639650854,0.00025263488335914186,0.9979121195691425
1003,0.9327433352856892,6.35731230321818e-05,0.03569950096552804,0.03149359062575029
1004,0.013725166445145433,0.000938900964543249,0.00019940334529929942,0.9851365292450122
1005,4.549466391665982e-10,0.999981227703282,1.059089394483895e-07,1.8665932831717173e-05
1006,3.2389964131823102e-09,0.999934510244524,2.593031990880378e-05,3.9556196570893554e-05
1007,4.083029714222438e-05,0.9352320009438599,0.06463872235970544,8.84463992924496e-05
1008,0.9984052441972923,1.4197008164041105e-06,7.274138559225028e-05,0.001520594716298968
1009,1.0892059874008194e-09,5.752641541550919e-10,0.9999685049923513,3.149334317863183e-05
1010,6.551746393577652e-05,0.9878600853526572,0.01196558459828143,0.00010881258512557194
1011,0.9993162566132451,7.224263935152044e-07,0.0002439591332955099,0.0004390618270659675
1012,0.0006569465120614607,0.00010787207416041406,0.017655269268418494,0.9815799121453596
1013,0.00041514031959477755,5.373671923675451e-05,0.059818120765333924,0.9397130021958349
1014,0.00013747346809804374,0.9821225638051598,0.017370818452643568,0.0003691442740987154
1015,0.0017063938208869004,0.0001427241669212205,0.059884860261955566,0.9382660217502362
1016,0.9967158956824533,0.0024325267862016003,0.0005381068974687957,0.00031347063387613983
1017,0.0010656812719029806,0.06832727812525113,0.9066688385016091,0.023938202101236983
1018,7.875007966304592e-11,0.9999906231714135,2.97531062148898e-06,6.401439214966946e-06
1019,0.04610204655949513,0.0008320242949276971,0.006274994431224899,0.9467909347143524
1020,0.023350685626288167,0.0018474837404644838,0.9707556093575592,0.004046221275688002
1021,2.674575474605985e-07,4.1473090918336476e-07,0.999835304775678,0.00016401303586532578
1022,0.0011840125237137676,0.0008992427914674732,0.05981945019196185,0.938097294492857
1023,0.00035227880966137514,0.9599648942298674,0.03810063409698521,0.0015821928634860076
1024,0.9944142596017067,0.00012631226385613017,0.00018467439393898057,0.005274753740498271
1025,2.1404255768922124e-13,0.9999995773836589,9.998639591176396e-08,3.226297313966243e-07
1026,3.7409266786450084e-06,0.9971998278751809,0.002764822295112601,3.160890302789927e-05
1027,0.03638523802635622,0.0005835244477180756,0.01424587021171253,0.9487853673142134
1028,3.1414575854180463e-07,0.9991313047119149,0.000807514170695048,6.086697163159533e-05
1029,6.104319352615995e-08,0.9996134887190846,0.0003490525993277636,3.7397638394071447e-05
1030,3.836706542800998e-07,0.9991214643693926,0.00015423545018816465,0.0007239165097651977
1031,0.0007050250681660586,0.06835028363163323,0.9251462168411098,0.005798474459090947
1032,0.9534237067548934,0.01263705481386698,0.017571268752031525,0.016367969679207922
1033,0.9755666550305393,0.0038438240170746408,0.01870058793795746,0.0018889330144287175
1034,1.402167063496011e-07,7.962632382047089e-08,0.9996259267017219,0.000373853455247994
1035,8.576286086639574e-06,0.9375485546791592,0.06225636874359034,0.000186500291163889
1036,0.00012242062002565984,0.019376642075286103,0.9801631842140173,0.0003377530906709839
1037,0.9947175592042985,0.00026421441723169676,0.00025701998828778623,0.004761206390181782
1038,0.05410287490179021,0.011268875518479679,0.03375698876678906,0.9008712608129409
1039,5.389801961757467e-07,0.9989424577111892,0.001028393423542788,2.860988507205228e-05
1040,0.09968105469636294,0.0007442094489036518,0.00023784764383754186,0.899336888210896
1041,1.5837002961707506e-10,2.0400125019433978e-10,0.9999880092941217,1.1990343507090787e-05
1042,4.4346918114155894e-05,0.9891799211656035,0.00949896010638491,0.0012767718098974047
1043,0.9213663100720285,1.897804951539114e-05,0.03341911256534713,0.04519559931310876
1044,0.9525784547886915,0.0002644289780876935,0.00019498462469133587,0.04696213160852962
1045,0.006869215538649221,8.686524688817825e-05,0.3252696186023471,0.6677743006121157
1046,0.052635451467459585,0.0003489028213782915,0.00029109976368927215,0.9467245459474727
1047,0.00013191986879850976,0.01945182679257209,0.9796989310102046,0.0007173223284249391
1048,4.410594874782964e-05,2.6732306598771356e-05,0.9928036057238163,0.007125556020837056
1049,0.05417544627045886,0.01388500804496621,0.02228406131998057,0.9096554843645945
1050,1.4198102581380193e-08,2.7858317702887205e-08,0.9998845406960783,0.00011541724750119673
1051,0.9403670557728084,0.000538779107711977,0.01219426986866668,0.04689989525081292
1052,6.385057868020038e-06,3.858185643492168e-06,0.9973666453213328,0.002623111435155645
1053,1.294117445917799e-08,0.9998915557731353,1.897137425338546e-05,8.945991143687996e-05
1054,0.9881998956695767,4.0498021640534644e-05,0.00867016385696634,0.0030894424518166023
1055,0.005715860645983876,0.9914852621097214,0.0013388352263804686,0.0014600420179141876
1056,0.05510548479119466,0.010049790828884244,0.021103749825274278,0.9137409745546468
1057,0.05256355279082394,0.002770522506691377,0.002984382428027933,0.9416815422744567
1058,3.0999380449976804e-07,1.949606183660917e-07,0.9994157551659887,0.0005837398795884166
1059,7.375471938581465e-08,0.9995775044271358,0.00035202373719595714,7.039808094874774e-05
1060,0.9395451640715778,0.0005135265560032293,0.012868974327280392,0.04707233504513873
1061,0.0014960201010026746,0.9978649672921555,0.00029825663645041873,0.0003407559703915119
1062,0.969122812061733,0.00046190582754448875,0.007825850135157169,0.022589431975565448
1063,3.8675446277620244e-05,0.9353034482874679,0.06457967012330212,7.820614295247812e-05
1064,0.052821379912239536,0.008883212899607112,0.0072309782844633,0.9310644289036901
1065,0.004171327488911405,0.9300005848862108,0.0643199144723367,0.0015081731525409432
1066,0.9527734517773746,0.0001369541251806642,9.925944765306402e-05,0.046990334649791736
1067,0.04904838115613311,0.0063231252491987855,0.05320166797689994,0.8914268256177681
1068,5.5457579173593756e-05,0.9891585988141728,0.010643108651913587,0.00014283495474019846
1069,0.05303004125326439,0.0033118670261973408,0.008333086017025065,0.935325005703513
1070,0.00482899468314353,2.473017179801495e-05,0.0005762639752092231,0.9945700111698494
1071,0.019165972432399005,0.009581461766808925,0.9086036612565238,0.06264890454426818
1072,0.9445945691358769,0.0017553483484557245,0.006872692030723839,0.04677739048494351
1073,1.5487752185751066e-05,9.35349743189293e-06,0.9957776951589021,0.0041974635914803025
1074,1.5095228490810044e-06,0.9980209190625338,0.0012776763886154622,0.0006998950260016586
1075,0.052011762698589245,0.002944050072841797,0.002841604630031153,0.9422025825985376
1076,0.9500302507071859,0.001494770430236318,0.0016651589499740282,0.04680981991260341
1077,2.4910760267626574e-09,0.9999331002489941,6.002252742311247e-05,6.874732506990386e-06
1078,0.0025146519505653423,8.571283701143618e-06,0.00047891042900705176,0.9969978663367267
1079,0.00013655773625873195,0.9348546652638069,0.06454034651386503,0.00046843048606936264
1080,0.9864825193626012,0.0002189613917572054,0.0004199005736702538,0.012878618671971341
1081,0.05256497591018478,0.0014420540607644001,0.00043680917166563914,0.9455561608573853
1082,2.7656629981351754e-05,0.941791041517698,0.057904470851843096,0.0002768310004775516
1083,3.677745215346834e-07,0.9991357889233101,0.0008261340981841697,3.770920398413027e-05
1084,0.9855488776193178,6.013006668879182e-05,0.001715799180178985,0.012675193133814391
1085,0.9436901701353191,0.004400624752864558,0.005200153272939085,0.046709051838877504
1086,0.9883398244211465,0.0004296852105804235,0.0008655327988048079,0.010364957569468156
1087,0.052440805645668685,0.005994446885373046,0.0011845404761671391,0.9403802069927913
1088,0.9366078258278996,0.0003676966599573282,0.016239172367192543,0.04678530514495052
1089,1.5096782805283142e-05,0.9332236708416788,0.06443478615688644,0.0023264462186291333
1090,6.17412517856664e-07,3.4976509829137155e-07,2.856206745468858e-07,0.9999987472017093
1091,0.9680824572686942,0.0007840547574306364,0.001649512363425958,0.02948397561044927
1092,0.0066400304176983185,0.9853849161619507,0.0010614525081205446,0.006913600912230233
1093,2.4545034967776002e-08,1.6030952450049974e-08,0.9999592343100204,4.072511399229975e-05
1094,0.05347426840256555,0.006686224102178779,0.01149390190625914,0.9283456055889963
1095,8.442665379753692e-07,4.1520816398959805e-07,0.9995158017523349,0.0004829387729631213
1096,2.7366251193674532e-05,0.5189524890456038,0.48069155507431116,0.00032858962889094665
1097,0.001886468515153731,4.937126000917909e-05,0.00035212706758779396,0.9977120331572492
1098,9.400042708918422e-05,0.9854520430869211,0.014082444328704525,0.0003715121572850274
1099,0.9982021249559059,8.16541919289557e-06,1.1280907162325831e-05,0.0017784287177388793
1100,5.103036558280959e-05,0.9893822527884676,0.010553110517839382,1.3606328110266878e-05
1101,0.051415134529505,0.0013337987208902205,0.003727577783672697,0.9435234889659322
1102,1.8637645847109574e-07,1.6794147160259768e-07,0.9996632115703317,0.00033643411173812633
1103,0.05458966461545701,0.0079810781718085,0.017561228151614584,0.91986802906112
1104,0.00037128129481322217,0.0073545383813896385,0.9909869137647134,0.0012872665590839643
1105,2.267884922765986e-07,1.3766298719487995e-07,0.9994928197996997,0.0005068157488207123
1106,0.9890359374249481,0.00041560926399040565,0.001440203621346004,0.009108249689715532
1107,0.007560809873042544,2.829289707430634e-05,0.04759351625558386,0.9448173809742992
1108,0.002543658212543717,3.4544584993083956e-05,0.9967297145409182,0.0006920826615448679
1109,0.9606623332682069,0.00036035630490720787,0.034337487618819384,0.004639822808066696
1110,0.9328196404931445,0.0009754584655251134,0.036795808451926676,0.0294090925894037
1111,0.05373751071913487,0.009675608746343009,0.013800655048978976,0.9227862254855432
1112,0.9528897155560805,0.0001393638836871571,6.794714686984583e-05,0.046902973413362505
1113,0.05265467631291228,0.00540036921871524,0.004705263420319447,0.9372396910480529
1114,6.748931665810337e-05,0.06864398174046954,0.9270137975604026,0.004274731382469419
1115,9.071962877502539e-10,0.9999664278231889,4.961571543005241e-07,3.3075112460735736e-05
1116,0.021538527869943876,0.0025267112437093162,0.00670742805043959,0.9692273328359071
1117,0.003694837847184947,0.9830263274348077,0.012565508367251529,0.0007133263507556715
1118,6.689457188290754e-12,0.9999977712442375,5.555632619715935e-07,1.6731858110623643e-06
1119,0.9306886637770985,0.017154177195338693,0.013599041010624917,0.038558118016937565
1120,0.007024706488261199,4.225002002492821e-05,0.0007399635285454547,0.9921930799631683
1121,5.305450479802518e-06,0.9965803770197265,0.0033801225815376754,3.419494825619685e-05
1122,4.799255944911022e-09,0.9999404233832891,1.4587085164842842e-05,4.498473228990234e-05
1123,0.0001723677476899216,0.9813397300959127,0.01692985500600142,0.001558047150395845
1124,5.690419109706085e-11,0.9999887068111453,1.075649790788894e-05,5.366340424288236e-07
1125,0.0012982210882486035,0.00015739975075694166,0.021266342459197705,0.9772780367017965
1126,2.7574249735308626e-06,0.997570443306824,0.0023814170572720316,4.538221093054459e-05
1127,2.4120464589329286e-06,0.9987650453270939,5.2827551852984175e-05,0.0011797150745940605
1128,2.8383421820075403e-05,0.9341863072073116,0.06453756494579761,0.001247744425070926
1129,5.609175440021264e-08,0.9996434469764789,0.0003450239220293132,1.1473009737339485e-05
1130,2.194229382399135e-05,0.9346568207695771,0.06454366641729915,0.0007775705192996753
1131,0.05258050687539724,0.0001727942367504627,0.0003287722332960113,0.9469179266545563
1132,0.011774773551277016,0.00012384279481880096,0.9605715287019226,0.027529854951981476
1133,0.00123669664288681,1.1448050706010093e-06,0.997741647252955,0.001020511299087677
1134,5.246730065424011e-06,0.9963582521383394,0.003104208123661299,0.0005322930079338139
1135,0.0007064257725858317,0.9333884710264183,0.06451267793881076,0.001392425262185125
1136,4.804252976306135e-05,0.9899489251703651,0.009185306741298674,0.0008177255585728753
1137,0.004529877936917316,0.9836729905451652,0.0019409878900999483,0.009856143627817499
1138,4.865926877772152e-10,4.971042494554047e-10,0.999982347560051,1.7651456252074486e-05
1139,0.9477633614035581,2.4514709661238902e-05,0.007479258415896994,0.04473286547088353
1140,0.0018110881567327544,0.001530266098842395,0.059796017195161505,0.9368626285492633
1141,0.9413766783490439,0.00029950650220920104,0.011302971996621499,0.04702084315212505
1142,0.0008312692469656836,1.454471070935976e-06,0.9989605425078881,0.0002067337740754186
1143,0.9734198743809017,0.0008949848109524918,0.0013528860888694743,0.02433225471927616
1144,1.3888683368901476e-07,2.9831783442795256e-07,0.9998935476710022,0.00010601512432975306
1145,6.580108477392283e-06,0.0031740572016104845,0.9968014047893203,1.7957900591520047e-05
1146,8.41362048735372e-11,8.848149417401184e-11,0.9999892297572729,1.0770070109296054e-05
1147,0.9521834134719487,0.0005372044995767098,0.00031952377671301725,0.04695985825176153
1148,1.0320015749174847e-06,4.808742592317842e-07,5.975412533507735e-07,0.9999978895829126
1149,1.541790479668449e-08,0.9998027809970519,0.00015145177760308968,4.575180744034352e-05
1150,0.05271478008670342,0.003102097474846301,0.005320728101090358,0.9388623943373599
1151,0.960869414166826,0.00015735226441452278,0.00013956360431293256,0.038833669964446586
1152,0.9971424849084716,8.938872050039349e-06,0.00021447030406681678,0.002634105915411768
1153,9.179054959742609e-08,5.588547741900137e-08,0.9999547576893444,4.5094634628505196e-05
1154,3.540109986839416e-09,0.9999357750453529,6.968056792068547e-07,6.35246088579729e-05
1155,1.727792793556217e-07,0.9993782677462546,0.00038343255640418977,0.00023812691806190925
1156,0.9992831377886913,0.00015890759417952694,0.00021294480080112573,0.00034500981632786047
1157,0.00113265056222305,4.3300654540359517e-05,0.9028463541991336,0.09597769458410295
1158,5.982926910161302e-10,0.9999629778035639,2.6853641809817764e-05,1.0167956333443564e-05
1159,0.0038730171985533186,9.97235353439444e-06,0.0008365190850370101,0.9952804913628752
1160,0.050936626067972106,0.004350898350416456,0.0012564758339711922,0.94345599974764
1161,0.005077569008701644,0.9936381936779097,0.00018954013888941628,0.0010946971744992004
1162,3.7903455603471724e-05,0.9907652054219163,0.009098762623494525,9.812849898545752e-05
1163,0.9537230522296637,0.013509777728493402,0.0212351953266548,0.011531974715188324
1164,0.0003508021080065389,0.9329199732937911,0.06435287387781732,0.0023763507203850474
1165,2.040957638235703e-08,0.9999047962316698,1.1294033987962584e-07,9.507041841405789e-05
1166,8.673745383837523e-08,9.729941778142422e-08,0.9997689120427251,0.0002309039204033794
1167,2.809148935977177e-05,0.9919795497708168,0.005323786309466595,0.00266857243035684
1168,0.9869308547072669,7.287881364028804e-05,0.00027061782856226536,0.01272564865053037
1169,0.0006804459716046155,2.070106968874635e-05,0.06002910940402341,0.9392697435546833
1170,0.937441650909773,0.00029606929529766814,0.015543298418788702,0.04671898137614055
1171,0.9489267669667588,0.000965896033678544,0.003186336234303677,0.046921000765258944
1172,0.9455269479099679,0.005050460608598849,0.0026935528729058597,0.046729038608527326
1173,0.9858133472313905,0.00011046070517801847,0.012576497854937974,0.001499694208493554
1174,0.9756256447486583,0.00043937687372851364,0.0015510018408934573,0.022383976536719627
1175,0.00024106662560936337,0.021495065181966908,0.9781323116766212,0.00013155651580264226
1176,2.3534127539041674e-05,0.993708523796495,0.006232511898961666,3.543017700414701e-05
1177,0.9956142970144637,1.2125051117134412e-05,0.0001416825671883881,0.004231895367230933
1178,0.031230510812796226,0.0009114719603776593,7.4194944152215e-05,0.967783822282674
1179,2.2640300830755848e-06,1.2086142883023005e-06,1.1802053347527205e-06,0.9999953471502938
1180,0.04068698370766405,0.001071277759605381,0.9252716687589656,0.03297006977376494
1181,0.9964862984874094,6.4071605442841654e-06,0.0029732883029807556,0.0005340060490655076
1182,6.398633831931834e-07,3.694743112800422e-07,0.9999688658650627,3.012479724269232e-05
1183,0.0006533774012175078,9.76700396000887e-06,0.060026241865102296,0.9393106137297201
1184,0.052081254565103395,0.00033789403736012155,0.004514462056763147,0.9430663893407735
1185,0.9572072443497036,0.00033532757232884107,0.03059579926102147,0.011861628816946253
1186,0.0020711553694207512,0.9949997108290071,0.0022736070746980147,0.0006555267268741667
1187,0.0007980443382116459,0.9336846870252807,0.06447000933294808,0.001047259303559461
1188,1.966984437417123e-07,0.9993149160501569,0.0003609910524474683,0.0003238961989519548
1189,8.203588799326182e-06,0.9968429384655102,7.684323730341074e-06,0.0031411736219600674
1190,0.9721559944335204,0.0005131095319350229,0.003160588894989082,0.024170307139555373
1191,4.5613828869435775e-11,0.9999918124952307,5.635750568091909e-06,2.5517085872782368e-06
1192,5.400054057800234e-06,1.0191330847356902e-05,0.9981076915461057,0.0018767170689891976
1193,0.00034036360802530057,0.03382667951870142,0.965244610003575,0.0005883468696983674
1194,1.5170489777620708e-08,1.57951796056109e-08,0.9998586571925603,0.00014131184177036568
1195,2.2288931557954263e-11,0.9999935904478435,3.4369954718288303e-06,2.9725343957577077e-06
1196,0.04012185277769632,0.005670946246049926,0.012017336919306868,0.942189864056947
1197,3.72456816023988e-08,0.9997042953014278,0.0002433055816342008,5.236187125625562e-05
1198,0.9333847971222939,0.003959528016899208,0.01625233143998671,0.046403343420820115
1199,0.038463731168772414,0.0012723027840261672,0.9593774771649606,0.0008864888822410056
1200,0.0002897236812532054,0.9758271085996725,0.023447097347022983,0.00043607037205132447
1201,2.127607014048299e-08,0.9997634601740698,0.00019952666646397139,3.6991883395978065e-05
1202,3.3346949463102225e-05,0.9625143157578793,0.03715007440885001,0.0003022628838076291
1203,1.127295372715805e-09,0.9999498042206059,3.987850556438408e-05,1.0316146534075129e-05
1204,2.5756649138552663e-05,0.9925640854809457,0.007110226301306083,0.0002999315686099117
1205,0.9983894273277863,7.124973592047751e-07,0.0009878745484109806,0.0006219856264435468
1206,1.9137174766412573e-08,1.153676108399314e-08,0.99985600891064,0.00014396041542416149
1207,1.3868188338433733e-05,0.9334363491692906,0.06454861214731611,0.0020011704950549784
1208,0.05258018216109626,0.00032094310338695467,0.001012441762603313,0.9460864329729134
1209,0.021062745744916584,0.0002348479262710794,0.018972833837289135,0.959729572491523
1210,0.9993130949907423,6.4797082564051675e-06,1.3046271180445509e-05,0.0006673790298208297
1211,0.9485403739401439,0.003981800889338317,0.0006455482754891943,0.04683227689502888
1212,0.0011707787406323427,0.0010661075358326165,0.03931963344037772,0.9584434802831573
1213,0.00012671041600034245,0.9831144541009377,0.016314735329941626,0.0004441001531202882
1214,0.05266811512974777,0.0032076187576372023,0.005285089949253142,0.938839176163362
1215,0.9990851222521501,1.2609544740653538e-05,0.00018351230295357993,0.0007187559001557252
1216,5.672753016240798e-08,8.386688090507167e-08,0.999757329509019,0.0002425298965700439
1217,0.05262240299436202,0.0009156374664382427,0.0015523121923226818,0.9449096473468771
1218,0.0027868542595184155,4.5390076023004214e-05,0.994554413274128,0.0026133423903307892
1219,0.00033868013357084655,0.9715015220317341,0.02797953245840436,0.00018026537629066235
1220,0.05249699677546905,1.9376405513422482e-05,0.002433869099825569,0.9450497577191919
1221,0.9518124783392814,0.0004400204881995439,0.0008581906024655787,0.04688931057005333
1222,9.369243239531692e-07,1.4915846304353317e-06,0.9990383949607872,0.000959176530258344
1223,2.3379237394322616e-10,0.999986745729837,2.391997534255419e-06,1.086203883617178e-05
1224,3.4760781241865107e-11,0.9999909397967985,6.08279069677143e-06,2.9773777439095413e-06
1225,0.00019761615302774373,0.9769405849625984,0.020545301038752357,0.0023164978456216086
1226,0.9891456523591129,0.0005340145308966463,0.0006600257487999568,0.00966030736119045
1227,2.794052687818756e-14,0.9999998045616246,9.999542177412552e-08,9.544292579051272e-08
1228,0.00973374679696545,0.0004350870852056932,0.05571725166199963,0.9341139144558291
1229,9.218539388420733e-05,0.9858203015386671,0.01394731624623751,0.00014019682121121384
1230,5.194194454574003e-07,0.998894154844539,0.001039350883842484,6.59748521729034e-05
1231,5.502827435283366e-07,3.7753968456305255e-07,4.3913003173149426e-07,0.9999986330475401
1232,2.3153704988765468e-06,0.9976651805131685,0.00193766889818875,0.00039483521814377107
1233,0.00031659936642998107,0.9727373186726447,0.0268981197180434,4.796224288197353e-05
1234,0.003783589543670818,0.0006273996116350544,0.0006717921102105679,0.9949172187344835
1235,0.0001261572148995042,0.9828495259937449,0.016817475996625416,0.00020684079473038872
1236,1.0725641159277258e-05,0.995249517753344,0.004672620639976865,6.713596551997886e-05
1237,0.0013569581024401652,0.00028316776653059136,0.9773756418813563,0.020984232249672528
1238,0.013200092466094866,8.357590844245731e-05,0.9415063798832193,0.04520995174224355
1239,8.415245281327395e-07,5.069025172382584e-07,0.9990471906685038,0.0009514609044506974
1240,0.008471144588390066,0.00014539922570493016,0.00011726227776140141,0.9912661939081435
1241,0.010734164237367257,0.0022729412117212145,0.014096032099070423,0.972896862451841
1242,3.4911093465517774e-08,0.9997292764261754,0.00026309477686347775,7.593885867621908e-06
1243,0.0037082862911936875,0.0014437959528996094,0.9920626813474288,0.002785236408477962
1244,0.05249796803495388,0.0002729273113711435,0.0013736796615864467,0.9458554249920883
1245,2.532136486775975e-07,0.9994918947704029,0.00030251948968364347,0.00020533252626487496
1246,2.2059592857208936e-05,0.9930104327217029,0.006941372534203633,2.6135151236306176e-05
1247,0.9634728318589435,0.0021204179313226903,0.004575040141568085,0.029831710068165703
1248,1.7037609148930333e-07,0.9993906981023593,0.0006026615738575516,6.469947691524733e-06
1249,2.88570592444825e-06,1.6189268058333233e-06,1.064901530651632e-06,0.9999944304657392
1250,0.9274143142254002,0.006202146655957959,0.018862144284371482,0.04752139483427021
1251,0.010075460645554639,0.9567549209242907,0.022979395214554783,0.010190223215599896
1252,0.9560886897885703,0.00014338598084333897,0.000293310117960969,0.04347461411262544
1253,0.0002789276619214082,3.0959705826115185e-05,0.05996973098508998,0.9397203816471624
1254,0.0003608252947299822,0.03282402319986535,0.9664790435186711,0.0003361079867335251
1255,9.574357497252746e-05,0.9841446415589553,0.009790226398998063,0.005969388467074159
1256,0.007641231582859367,0.9237289460658806,0.050356570401248364,0.018273251950011685
1257,4.370376625144003e-09,0.9998993105889967,9.412246664215531e-05,6.562573984483905e-06
1258,0.9597352462784247,0.000373253486223884,0.033621211048000824,0.006270289187350804
1259,0.0403794873848717,0.010898046187550326,0.021641153843793528,0.9270813125837843
1260,1.2853178753571186e-07,4.9623594144430074e-08,0.9997707559682184,0.00022906587639974258
1261,3.087960887641986e-07,0.9992792462755851,0.0007044945038890643,1.5950424437165533e-05
1262,3.744730381360945e-09,0.9999064555930671,7.94273824237349e-05,1.4113279778774543e-05
1263,0.021656833180576183,9.602009245849654e-05,0.0040676437912810694,0.9741795029356843
1264,0.02885912777372974,0.06358943043674935,0.8865873988033045,0.020964042986216586
1265,2.5858187944660725e-12,0.9999983024679407,6.180881516726351e-07,1.0794413220042603e-06
1266,9.096099538382303e-07,5.339008180546135e-07,0.999468321864892,0.0005302346243361534
1267,0.9961833529880451,0.0002715120472147012,0.0027865975572837105,0.0007585374074564652
1268,0.01393926414708406,0.06881282986187967,0.884874550553516,0.032373355437519624
1269,1.5264720440181247e-06,0.9980952592595304,0.001785939613834039,0.00011727465459151557
1270,0.982847491166727,0.0006137154834622923,0.010441001923619499,0.006097791426191097
1271,0.052671945473519166,0.00027207922430656,3.733991872131864e-05,0.947018635383453
1272,0.00025886499571032705,0.06844824438738609,0.9255321457544466,0.0057607448624566095
1273,9.749600304144624e-07,1.160018909872691e-06,0.9988890417337537,0.0011088232873059539
1274,0.0002422361001217456,0.00045867724767009374,0.0599211754632902,0.9393779111889179
1275,0.022662678216154895,0.002229492415928262,0.001505268290197804,0.9736025610777191
1276,3.844463444743962e-06,6.986908162937305e-06,0.9984831046246981,0.0015060640036942729
1277,5.899790599332829e-06,0.9965666190704708,0.003256575724779257,0.00017090541415060357
1278,0.0008728790978153345,0.9752692562943056,0.013214487034812593,0.010643377573066404
1279,0.003296491374266553,0.9453136094443051,0.042648797710691556,0.008741101470736812
1280,0.9947970697450572,9.190757441550843e-06,0.0003582486144930684,0.004835490883008122
1281,0.0011950183588242556,0.0018125322469921237,0.9939503128516018,0.0030421365425819143
1282,3.5927175902188225e-06,0.0016269526927988323,0.9982691397933596,0.00010031479625123719
1283,0.04504988736605843,0.0007500302451874713,0.002366544646175895,0.9518335377425782
1284,0.007868446854090846,2.795485210596859e-05,0.02118342813916531,0.9709201701546376
1285,0.05257938475271661,0.0009265666296410782,0.0005279689518428424,0.9459660796657993
1286,0.008843356319541619,0.9616994840257258,0.02103387797184035,0.008423281682892398
1287,1.1573813669998879e-08,2.479538906776961e-08,0.9999745604007088,2.5403230088306234e-05
1288,0.9755022819300752,0.0004898181969455082,0.0020193426800829027,0.021988557192896354
1289,3.6775802109748025e-06,0.9971038706093799,0.002765302781265237,0.00012714902914405347
1290,0.9384676642444149,0.0012044069177833945,0.01335421998865842,0.046973708849143
1291,2.2246377224678295e-06,0.9978149084220784,0.002176566589299555,6.300350899511192e-06
1292,0.0005768423746116425,0.9944450174516736,0.0036186805806905156,0.0013594595930240692
1293,0.9990955937920933,2.027475427629643e-05,0.0005099856082601488,0.0003741458453702211
1294,0.007708003306960181,0.9416190786474558,0.03558900966991483,0.015083908375669284
1295,0.9993683531033566,2.3398103230203082e-07,3.038438568698206e-05,0.0006010285299241307
1296,5.146117391400966e-07,3.132227223427381e-07,0.9993526939037072,0.0006464782618313985
1297,0.9342867642246684,0.0074741396707960995,0.034957121880553756,0.023281974223981556
1298,0.00013800939911209765,0.9351068009720276,0.06464336001182797,0.00011182961703246194
1299,0.0008662310459567239,6.149706652421874e-07,0.9985314939402903,0.0006016600430877181
1300,0.012501684873684825,0.00011565293811640701,0.9836896154651318,0.0036930467230669537
1301,0.015323574202620486,0.053410007911097505,0.9284090196170817,0.0028573982692001836
1302,0.9659114791264769,0.0009128615742840027,0.0065101594992219,0.0266654998000171
1303,0.05401169959379828,0.004951504025379037,0.014153240451334804,0.9268835559294878
1304,0.9515121066015252,0.0002899581645041287,0.001279467210436478,0.04691846802353449
1305,2.717954217540631e-11,0.9999928896801059,3.83004811244406e-06,3.2802446018732946e-06
1306,0.054146948543283675,0.00995792894591927,0.0237349747530158,0.9121601477577812
1307,0.9802892539328086,0.0001885224863546187,0.015288565037013205,0.004233658543823537
1308,0.0018849678470551122,1.4535233207793043e-05,0.0021173548997377094,0.9959831420199993
1309,0.0005943037169590647,0.000504310090287229,0.9721896955373133,0.026711690655440448
1310,0.006111110394368423,0.9855709717310563,0.0035384031872339513,0.004779514687341256
1311,9.174062970142663e-05,0.9854946459241822,0.014324719708872039,8.889373724427557e-05
1312,0.9733769028434228,0.010690884591872049,0.01029741319747909,0.005634799367226103
1313,0.002887649318382033,2.1381968070668012e-05,0.0009725644873113169,0.996118404226236
1314,4.143341748498042e-09,0.9999031731792878,9.017467936187472e-05,6.647998008659833e-06
1315,0.010010098153281974,0.021652261854633887,0.9132745806736157,0.05506305931846865
1316,6.923116363519477e-08,0.9998303324189757,6.030320256369298e-06,0.0001635680296041451
1317,5.554834703699976e-06,0.9961503679356174,0.00293620347863862,0.0009078737510403208
1318,2.9113189249551266e-05,0.9919057401007922,0.007978890784928645,8.625592502964427e-05
1319,0.001438077734714268,1.774056315968517e-06,0.99609305082745,0.0024670973815197838
1320,0.9997760625873072,1.491502542396854e-06,7.786068065738701e-05,0.00014458522949304514
1321,0.001992283565559876,8.748101223402034e-05,0.0005073555954711329,0.9974128798267348
1322,0.031622430283394495,0.0008100675078547873,0.0005190794934142789,0.9670484227153363
1323,0.9547168080878243,0.0017859449668324087,0.03477949771554033,0.008717749229802955
1324,1.145813211859808e-12,0.9999983499670125,1.2176281094113702e-06,4.3240373223446435e-07
1325,5.2088027915826225e-08,0.9996594085970317,0.0003309161408284257,9.623174111921179e-06
1326,0.0008858531685133066,6.151352874686364e-06,0.050193052756258565,0.9489149427223534
1327,0.00016234970127764262,0.0687818313729696,0.930024680413886,0.0010311385118671583
1328,1.3324979767065071e-08,2.5367626885679103e-08,0.9998877689378035,0.0001121923695896907
1329,5.419518291082179e-07,0.9989632456805968,0.0010036222662197442,3.259010135429497e-05
1330,3.745081899431478e-05,0.9910499529415817,0.008762054730456948,0.0001505415089669888
1331,0.005611219876253888,8.667951586447986e-06,0.9920374620722012,0.002342650099958686
1332,1.0489116031375837e-09,0.9999640658553316,4.624852421944691e-06,3.13082433350844e-05
1333,7.742228330809582e-12,0.99999698503377,1.0367753862054079e-06,1.978183101469129e-06
1334,0.9982443998802818,1.1607670141756384e-06,0.00018465323498941972,0.0015697861177146179
1335,8.877072221145351e-06,0.9955985822077184,0.0043680844196526,2.4456300407951117e-05
1336,0.99060059003221,2.0125501590594304e-05,0.006893476475858583,0.0024858079903406927
1337,0.05255521330138933,0.0006189551890114659,0.0003183824701370856,0.946507449039462
1338,1.0266774325714393e-08,5.755411988819386e-09,0.9999034441178861,9.653985992763482e-05
1339,3.5602098707119547e-06,0.9974328725890835,0.0020087598064324904,0.000554807394613317
1340,0.008451056274611445,8.679040782740148e-05,0.00489548469572184,0.9865666686218393
1341,1.138710679143493e-08,0.9998307571635375,0.00015086742607535913,1.83640232802984e-05
1342,0.00017981845026563973,0.978117693559185,0.01979040204141873,0.001912085949130786
