,0,1,2,3
0,0.9776019473356664,0.017793788399125102,0.00458406018199929,2.0204083209378666e-05
1,0.878032906239424,2.7384178577593855e-05,0.020086872028997584,0.10185283755300077
2,0.0800634542301569,4.919150381144293e-05,0.2636031502382215,0.6562842040278101
3,0.07407929411978546,1.9386172752610874e-06,0.00011576716704657994,0.9258030000958927
4,0.000760499826394193,0.9303094784440854,0.06874730351348853,0.00018271821603192792
5,0.02938516616510168,2.1315929708046212e-07,0.02451717413683621,0.9460974465387649
6,0.021588700464005996,0.008826077329369585,0.8865635345578399,0.08302168764878455
7,0.015254906991870015,1.6627923166504357e-07,0.02184845750163066,0.9628964692272676
8,0.0010721199651460645,0.8496718693926752,0.14893249862519647,0.00032351201698222875
9,0.00041350297821817454,0.9578366983070552,0.04171996330309703,2.9835411629684197e-05
10,0.7553263694457086,5.562051808527715e-05,0.09103290650328716,0.153585103532919
11,0.15576299681750894,0.6808538468248505,0.16258001156352347,0.0008031447941171133
12,0.9620361521364101,0.00439148599646259,0.02652916900763301,0.007043192859494262
13,0.33403079049246837,0.0003023353018487631,0.24516244545210003,0.42050442875358296
14,0.43185224230563535,1.1156997499089566e-08,4.870456600834668e-07,0.568147259491707
15,0.973637893735617,0.013945439980979397,0.012229963211083775,0.0001867030723199601
16,0.5903331885298032,1.1446924628858613e-07,4.358097369864833e-05,0.40962311602725177
17,1.7704820925901305e-05,0.9895246621959094,0.01045283041812688,4.8025650379156025e-06
18,0.06441513915492927,6.512216952485739e-05,0.025090490747737105,0.9104292479278087
19,0.011363578559791948,0.8263354145071775,0.16201607518210528,0.0002849317509251854
20,0.2981615093899957,0.0009197461555610379,0.5394650959045871,0.16145364854985605
21,0.929309997936634,0.06169630288704646,0.00889746629800058,9.6232878319021e-05
22,0.09788958339118066,1.2753907523311894e-05,0.218286121115113,0.6838115415861831
23,0.832666930289225,1.0875525735992017e-08,1.1811629940373347e-05,0.167321247205309
24,0.04236043105126976,9.337718861818182e-07,0.014920614102650947,0.942718021074193
25,0.0008314306131508124,0.8735502567508161,0.12515245026467825,0.00046586237135487046
26,0.005560154620567079,0.8493807812656002,0.14418690346696245,0.0008721606468701105
27,0.030788440975595435,0.00659302596379211,0.9276918062445875,0.03492672681602508
28,0.07741903776590119,0.001340669390209322,0.8002926379500752,0.12094765489381434
29,0.9624314496739164,0.03612568546348243,0.0014400046019903336,2.860260611024742e-06
30,0.025380598853832953,0.03034329703997466,0.9045195574054818,0.03975654670071059
31,0.0005750193741746204,0.8007238908691465,0.1978733132097195,0.0008277765469593395
32,0.00582794806397638,0.2719189079241986,0.718886213594124,0.0033669304177010237
33,0.021773669634195886,0.0018206928512979228,0.7662592237114926,0.21014641380301374
34,0.01887064957986527,0.029338371851005216,0.8832858135614877,0.06850516500764169
35,0.0010209957106103974,0.9362469101099818,0.06255088599897418,0.00018120818043358932
36,0.0001660494001641796,0.8657851205732834,0.13391970734907602,0.00012912267747641244
37,0.00015683244007354383,0.9199082879428008,0.07974277436557005,0.00019210525155557664
38,0.7802464550866739,9.029948742220668e-05,0.03788851994994885,0.18177472547595508
39,0.2107398904881281,3.72930255817483e-06,2.817607587539985e-05,0.7892282041334382
40,1.818124751159256e-05,0.9976065559457357,0.002374166564506967,1.0962422456974095e-06
41,0.0005945088501078432,0.9971651817439127,0.002239477041727794,8.323642518578683e-07
42,0.10322500096351082,0.0013636370333035585,0.78181996693819,0.11359139506499562
43,0.0008676578325541483,0.8785578083867935,0.12030985285764485,0.0002646809230076095
44,0.006921511322655281,0.1703184494222227,0.8025630284439982,0.020197010811123833
45,0.9558710946056215,8.991181815443796e-05,0.03807477352540248,0.00596422005082177
46,0.9508964252953571,6.211180408580629e-06,0.0018242729687587625,0.04727309055547561
47,0.00964822141252304,0.4416056957677182,0.5466964897013784,0.0020495931183803244
48,5.893704080407373e-05,0.9470678042607197,0.052518634430308186,0.00035462426816823284
49,0.04600046397555309,0.2898904144063107,0.6605241297074287,0.003584991910707587
50,0.0019407737818340181,0.9824110408775762,0.015644449405575238,3.7359350144762793e-06
51,0.04670630415890414,1.8620159260315542e-05,0.011137257477244006,0.9421378182045916
52,0.027335175729131495,1.0007474638923058e-05,0.1991866300533375,0.7734681867428921
53,1.529835369246353e-05,0.987241707526016,0.01272881925193366,1.4174868357926677e-05
54,0.03206325368256604,0.012200769556076276,0.8029537884184927,0.152782188342865
55,0.02867804693568367,1.2600126674782122e-05,0.1516828598223386,0.8196264931153029
56,0.00011157715249381057,0.9449174090438067,0.054855923407649235,0.00011509039605008561
57,0.47045864450378844,0.02942602386898926,0.3784536483916631,0.12166168323555909
58,0.6412299517851859,0.0006945780115758481,0.273294576837489,0.08478089336574914
59,0.9709007399900146,0.002715850469210126,0.025203301901807407,0.0011801076389676014
60,0.6571330151879073,0.0001633172528551629,0.03463733316891396,0.30806633439032344
61,0.0001551563303958624,0.9943584545351116,0.0054832472331235406,3.141901368888563e-06
62,0.8729368772118531,4.3836542523544393e-10,3.108943267942411e-08,0.1270630912603486
63,0.01713605603635797,0.42261539990435576,0.5578820957608771,0.0023664482984091903
64,0.9239915210506696,9.469661430922414e-05,0.03827381886861047,0.037639963466410624
65,0.0020336649642568477,0.9365034024982037,0.061348384113121074,0.00011454842441831549
66,0.08282608438577667,0.0001744028965496066,0.574564104102142,0.34243540861553173
67,0.00102276026302012,0.9657671097254522,0.03314926340620965,6.0866605317974506e-05
68,0.0019739429192691046,0.826120879178816,0.1714003844194322,0.0005047934824827595
69,0.9917327462857289,0.004574222577493509,0.0036670991352632833,2.593200151448849e-05
70,0.0015080888790589724,0.9755638602984074,0.022905192310112153,2.2858512421679504e-05
71,5.121736134915813e-05,0.9425487408669179,0.057261186438696765,0.00013885533303607586
72,0.0019681035185246092,0.834788600046392,0.16209924865401257,0.001144047781070805
73,0.05001699456759902,5.3662860710622575e-05,0.1695726181062336,0.7803567244654567
74,0.026276684520577142,5.405593174070432e-08,0.014091293673689236,0.959631967749802
75,0.9837833755489445,0.013180096168248839,0.0030097204790693385,2.680780373705127e-05
76,0.0009131980185193298,0.8577922771903959,0.14073628216787035,0.0005582426232145203
77,0.883437540253311,3.434753608400166e-08,0.0003765135108927886,0.11618591188825991
78,0.023450642721855063,0.38723527103173094,0.5735616154676634,0.015752470778750614
79,0.03005381282191729,0.0025177789853303065,0.07569448843049252,0.8917339197622599
80,0.19487297055296995,3.972875975969507e-07,0.0025351733111061655,0.8025914588483263
81,0.9155696786559959,0.002154494794037026,0.07337347843587207,0.008902348114094936
82,0.968041175249194,0.0003918464258904046,0.02432795708242092,0.007239021242494687
83,0.0023678595058160474,0.8996419662494293,0.09739495860171847,0.0005952156430362754
84,0.06155236268936025,2.7276347798218357e-05,0.3217274338883053,0.6166929270745362
85,0.00013810892696092456,0.9948661559724828,0.004964080838061526,3.165426249470722e-05
86,0.41535250228187875,0.00012588592224547447,0.08157571553578367,0.5029458962600921
87,9.788967587934306e-05,0.9833579107068066,0.01652945570242657,1.4743914887433483e-05
88,0.00046742649603417956,0.8709845396719751,0.12782542021173823,0.0007226136202525332
89,0.009363020247848675,0.973481546229639,0.01714337601925666,1.20575032557894e-05
90,0.0002245794972022108,0.9829325759906423,0.016768946958423323,7.389755373221721e-05
91,0.48888297742516607,6.093499566128717e-09,0.0006640471465579538,0.5104529693347764
92,0.9601178889787888,0.011640724057432925,0.027334545720815773,0.0009068412429625077
93,0.8445508072082776,1.7928272843623686e-05,0.049328953718696035,0.10610231080018276
94,0.049823596408139,2.4210137614852012e-08,1.1848523200734499e-07,0.9501762608964914
95,0.005657107537859156,0.9784001895577226,0.015865588465556395,7.711443886192387e-05
96,0.0008696228493587014,0.8095889976799984,0.18930760423539555,0.00023377523524751779
97,0.7638955030134478,0.0010636305566147756,0.14528609722811292,0.08975476920182449
98,1.1306994015505798e-06,0.9996600352503262,0.00033879579230832574,3.825796392377207e-08
99,0.058913573876388924,0.015827621343422006,0.8959166901117668,0.02934211466842226
100,0.798408351506308,0.00014101781991882298,0.09794709676913078,0.10350353390464231
101,0.8399457953816565,0.029448701397512288,0.12233825769132325,0.008267245529507906
102,0.011882099020724872,0.3491922097830645,0.6303507402165078,0.008574950979702792
103,0.5796534468360858,6.236440814316895e-08,5.5919591896780196e-05,0.42029057120760926
104,0.10023689123152847,0.001222612640723901,0.8089302478189703,0.08961024830877737
105,0.00043425931490324133,0.9581777459164375,0.040734730863766534,0.0006532639048928129
106,0.6721861199699695,0.0686847269434835,0.25143521497543114,0.007693938111115803
107,6.17148044799823e-05,0.9844238059387185,0.015502122467078206,1.2356789723394375e-05
108,0.026972753897765545,0.4599029121145282,0.5058447908190798,0.0072795431686263875
109,1.1885586923743895e-05,0.9850686479747092,0.014911694931240558,7.77150712659537e-06
110,0.6574796571990578,7.262599912963114e-06,0.03215399797781697,0.31035908222321235
111,0.9674716608818925,0.00026115182240123917,0.02012969003964823,0.012137497256058137
112,0.252230848856265,0.0006259028828004531,0.08554311196412016,0.6616001362968144
113,9.994502772251419e-05,0.9250035670390884,0.07464749744257393,0.0002489904906151895
114,0.0002980202866904678,0.8457331547457447,0.15369327943980388,0.00027554552776087437
115,0.003756041604555766,0.5067751750761647,0.483244446442683,0.0062243368765966525
116,0.7209419328037022,3.387751642679637e-10,4.923266800424971e-05,0.2790088341895182
117,0.003949501067306302,0.33672636027406977,0.6518020402006303,0.007522098457993597
118,0.7923704716036651,1.363282925280925e-05,0.001496790959210363,0.2061191046078716
119,0.10583792539399896,0.09160584670487468,0.7887842528289808,0.013771975072145557
120,0.08479205603854455,0.0002761839676237568,0.6241978226691436,0.2907339373246882
121,0.0005040901373895938,0.9264000579622665,0.0728492052785687,0.0002466466217752447
122,0.03381562356472525,0.027699698412595918,0.9070150233435935,0.0314696546790854
123,0.0011525577259983845,0.901446430418035,0.09667058375122312,0.0007304281047434385
124,0.021288021401689613,2.0424093663766217e-07,3.6315113862169174e-06,0.9787081428459875
125,0.8406964712275644,1.8974812029412844e-08,0.0005768071085533075,0.15872670268907038
126,0.011207928343809376,5.2736981267047745e-05,0.08981596868517407,0.8989233659897495
127,0.9356497328908223,0.0011035337609032914,0.04627915397634229,0.01696757937193202
128,0.002648098675102278,0.9902081246461316,0.007126713747635907,1.706293113030443e-05
129,0.847474156836747,8.53704068518368e-05,0.04391534945801348,0.10852512329838766
130,1.4748080286008842e-05,0.9940429415357407,0.005941364663849637,9.457201235541766e-07
131,0.02269338229432702,0.0010621698747720558,0.7539403856333768,0.22230406219752402
132,0.00037040945985008936,0.8836810042779172,0.11559912593485928,0.0003494603273735583
133,0.9095435490401994,0.0003462998618852584,0.06262514108080128,0.027485010017113953
134,6.333333334914196e-05,0.9811939350618605,0.018726287447900034,1.6444156890389918e-05
135,4.889876931268146e-05,0.9643195143081781,0.03557592076087522,5.5666161633932955e-05
136,0.9517007735372235,0.0006975902506052382,0.039186447865348,0.008415188346823352
137,0.008599300631699149,0.028138937582567785,0.9338490857174996,0.029412676068233393
138,0.1335667271968366,1.193194719641474e-05,0.20619399134108618,0.6602273495148808
139,0.003487098286734985,0.00299062122638008,0.8678728204166692,0.12564946007021574
140,0.8999189280431104,9.4040979783481e-05,0.015439546736606668,0.08454748424049946
141,3.203733271154033e-06,0.9955699120089844,0.004425005725842181,1.8785319022648494e-06
142,0.0031311901631470886,0.481427448881716,0.5129623357792461,0.0024790251758908927
143,3.1087607272608856e-05,0.9980040467875391,0.0019633857283003716,1.479876887725464e-06
144,0.04868094220355765,7.831667885107598e-05,0.043553231621426144,0.9076875094961652
145,0.0029153409166194477,0.7516498406374279,0.2447397680416634,0.0006950504042892323
146,0.13676223010444402,0.00022128117822385054,0.07828118066585014,0.784735308051482
147,0.002163469808044271,0.902974049360412,0.09460019739628038,0.00026228343526337594
148,0.008479078271322875,0.7319578900954988,0.2579569857271041,0.0016060459060742358
149,0.8059350577475756,0.05059884789874532,0.14231954116384804,0.0011465531898311961
150,0.3530413969707997,0.00014098493027025368,0.4873121714365262,0.15950544666240374
151,0.0021499151771041582,0.7003367122296734,0.29578831060391475,0.0017250619893077084
152,0.04358226013542768,0.003058597732603767,0.8492783285356897,0.10408081359627887
153,9.763660944404714e-07,0.9998031396161556,0.0001956265581983609,2.5745955144177696e-07
154,0.0069477466033448804,0.209468223244435,0.7706568547135875,0.012927175438632794
155,0.06398895099161543,0.0006378340830049522,0.7845340710778366,0.15083914384754324
156,0.05683259240107111,0.01871269362023806,0.02926175893185432,0.8951929550468365
157,0.04676040610722793,1.2858421332774227e-06,0.012685771617587736,0.9405525364330511
158,0.00030687729931311937,0.9216251859177306,0.07790967424169012,0.00015826254126604682
159,0.000280495622761308,0.9244739565163894,0.07492437880850959,0.0003211690523396024
160,3.112734796225958e-06,0.9960999433105422,0.00389533322803649,1.6107266252123774e-06
161,3.572664710883597e-05,0.9987422494864088,0.001221718806305993,3.050601763952554e-07
162,0.0030840336279883123,0.7387069439466468,0.25724120466318706,0.0009678177621777778
163,0.04339486597706423,8.291800474342707e-06,0.07984394542515338,0.8767528967973081
164,0.0001215831335181977,0.8770173106780191,0.12250078834282015,0.00036031784564248385
165,0.30045700699476985,5.7439733303406665e-06,0.1182839886343998,0.5812532603975
166,0.9418183786812108,0.00350522875486933,0.05166375308688298,0.003012639477037035
167,0.9386418666318943,5.535219849654381e-05,0.03241567632561813,0.028887104843990884
168,0.7894844564797346,2.9884619593441723e-07,0.003931904756242921,0.20658333991782668
169,0.12833378742190896,2.818951357842182e-08,1.9873755818111667e-06,0.8716641970129957
170,0.7026188413036719,6.996459931681679e-06,0.001489296490142062,0.29588486574625433
171,0.00020724088899500638,0.9269964659793745,0.07247334913480105,0.00032294399682960867
172,0.06354518680037254,0.0009970295796382477,0.795996061762612,0.13946172185737732
173,0.8831275618966343,0.006566597015191467,0.09872437875050476,0.011581462337669431
174,0.010746134214621212,0.8659692759498128,0.12155302000551846,0.0017315698300474857
175,0.05651559172531414,0.011226458341930382,0.8851526348936243,0.04710531503913117
176,0.0002495610262277824,0.9202690943197649,0.07936084961272086,0.00012049504128654919
177,0.0005079047754833211,0.9746054735413476,0.024797762762960727,8.885892020830183e-05
178,0.0020618490770778902,0.8165554705014592,0.179478222235042,0.0019044581864209509
179,0.8161515827927326,1.8702355656545278e-07,0.00043644522044659266,0.18341178496326432
180,0.007192808532670574,0.05462566348025812,0.9161939482975155,0.021987579689555815
181,0.09308269774677685,0.0004754355256640478,0.012248538726430799,0.8941933280011284
182,0.02954762307464678,0.002441158685406595,0.8837012060437391,0.08431001219620747
183,0.30415889531042634,0.6849313445173684,0.01082742246783879,8.233770436639054e-05
184,0.05117068028279347,1.4104166919564408e-06,0.0021504121309932423,0.9466774971695213
185,0.00037804071750514276,0.8799691045970844,0.1185220585177662,0.0011307961676442042
186,0.8550560214931284,0.00014953472631686645,0.098280923811624,0.04651351996893081
187,0.06794353820294433,3.536981647793583e-10,8.676262419718064e-07,0.9320555938171154
188,0.0003047439069154466,0.9941314821148597,0.005561785429105948,1.9885491189166144e-06
189,0.7633218889984736,3.021241686394759e-07,0.0003946221856412168,0.23628318669171644
190,3.817497149395451e-05,0.9930111340582455,0.006947850193109826,2.8407771508903492e-06
191,0.3082282254587488,2.5046892311758035e-07,1.9019099047120015e-05,0.691752504973281
192,0.028660092170638165,2.9647515219269926e-07,0.02011507096096909,0.9512245403932404
193,0.00074194572780578,0.9880563165639438,0.011120992443948286,8.074526430206952e-05
194,4.6465638469164585e-05,0.9861402442072844,0.013800905548134242,1.2384606112124563e-05
195,0.03240118043219108,6.043501017634868e-06,0.051037679647383816,0.9165550964194075
196,0.014885129330398874,0.11025680685257931,0.8554355435523826,0.019422520264639233
197,0.03517530711998972,0.10745195238676843,0.8511638931161144,0.006208847377127377
198,0.07435752522247373,4.44395738676864e-05,0.2756760192158536,0.649922015987805
199,0.0002521513498285458,0.9990699660794149,0.0006774993814178417,3.8318933843221986e-07
200,0.00011181726186622002,0.9895295484839606,0.01026371896884305,9.491528533024333e-05
201,0.0006790270534334632,0.9047380619732435,0.09375746033044348,0.0008254506428794472
202,0.9088913207375275,0.0002835970132587676,0.07179185390843536,0.019033228340778467
203,0.006002752839246246,0.20988005323649694,0.77276763567892,0.011349558245336787
204,0.007110178575939675,0.5513937551232414,0.43165827385918876,0.009837792441630069
205,0.8686627719897495,0.0009303001779561307,0.11314158783704915,0.017265339995245127
206,0.0064100781593626095,0.8013263594288673,0.1912240696064306,0.0010394928053394127
207,0.0003492028597691246,0.9782042039553333,0.021423073859243674,2.3519325653890352e-05
208,0.6587854793027377,0.34115861258600955,5.58630553028467e-05,4.5055949862093296e-08
209,0.02489286559597304,4.233913398348429e-05,0.040288258515191556,0.934776536754852
210,0.6342937616356166,2.958764075061904e-07,0.003107128932434404,0.36259881355554147
211,0.023530163812469623,3.426478015441201e-06,0.029471047725582268,0.9469953619839326
212,1.9529064364620983e-05,0.9941083511991773,0.005859228477605639,1.289125885264235e-05
213,0.007865634539849562,0.014429256987986446,0.9370911730469871,0.040613935425176995
214,0.7603394281158159,7.727836473319269e-07,0.004421988923518773,0.2352378101770179
215,0.9690357020207029,5.065150437500138e-05,0.004885410806144316,0.026028235668778026
216,0.00021064218430606648,0.984188129279778,0.015571519021405944,2.9709514509957642e-05
217,0.23258734016532748,0.001886993626055642,0.6497474771099114,0.11577818909870552
218,0.003257293150202707,0.22778984928493107,0.7644050640017533,0.004547793563112907
219,0.023760208727433656,0.008502398256907562,0.9167415570284508,0.050995835987208055
220,0.2158708375217253,0.001743870887741042,0.6976443739915322,0.08474091759900144
221,0.07960213404743804,1.974713741561489e-05,0.019221281104586437,0.90115683771056
222,0.03767337174613415,0.005922222262262242,0.9172909249971285,0.03911348099447504
223,0.16298248084053907,8.16769333036461e-06,0.04684698349611921,0.7901623679700113
224,0.8502499991506465,1.8524565058074435e-05,0.06502665852522586,0.08470481775906959
225,0.22528216831926157,0.00029127081340676175,0.08442383228007384,0.6900027285872579
226,0.051184245620852095,0.007947023316960466,0.8785358269871848,0.062332904075002575
227,0.12810147696860352,0.21176652015730446,0.6417862770236007,0.018345725850491403
228,0.0036402280487129617,5.366634500185299e-05,0.0084709059234569,0.9878351996828284
229,0.0004784041988278353,0.7901317311855018,0.2085974963784374,0.0007923682372329093
230,0.025238524380131917,8.634605063820406e-06,0.21634811669684842,0.7584047243179558
231,0.0716894426924027,6.89336008761992e-08,0.03293754486876958,0.8953729435052269
232,0.667876656793048,2.5013376574896036e-08,3.580333503118225e-05,0.3320875148585444
233,0.00025492238306678525,0.9202505249985726,0.07938337202598747,0.00011118059237331573
234,0.00437002858846223,0.856257630567857,0.13913922266601245,0.00023311817766836343
235,0.3933540844267679,0.0005033627754157938,0.33695339399687274,0.26918915880094363
236,0.007655621166707308,0.8444069919010018,0.14773822217998772,0.00019916475230311384
237,0.0005305396617359878,0.923900694182191,0.07535582674745495,0.00021293940861799717
238,0.00012648777214679493,0.9399443703696998,0.059684174443610176,0.000244967414543261
239,0.7780770370205047,1.2047044074783554e-08,0.00040535250640928597,0.2215175984260418
240,4.36485411904389e-05,0.9921853097564928,0.007757395683396484,1.3646018920428581e-05
241,0.020049558575630334,1.0727930076225332e-05,0.03685104069987405,0.9430886727944193
242,0.8153475286765189,1.908325800653884e-06,0.002416936875614395,0.18223362612206612
243,0.2807082271859755,5.888335687376032e-07,0.009601180471071459,0.7096900035093843
244,0.03421184682104477,0.8281252905784577,0.1369984657384973,0.0006643968620001271
245,0.1143018977142434,8.916402430393843e-06,0.12066979035546889,0.7650193955278574
246,0.06732005928833124,0.0004528706710658701,0.5584463099199239,0.3737807601206789
247,0.12672864894728933,6.488986702770279e-06,0.024280795955050144,0.8489840661109577
248,0.36690852756998227,0.0001229043785398173,0.26097180306326656,0.3719967649882113
249,0.004838384636947628,0.8562566267619744,0.1375357975631797,0.001369191037898171
250,0.9777299008147042,7.737388980778475e-05,0.017158916337473604,0.005033808958014548
251,0.11098024955274026,2.426188295744488e-05,0.39854481640215317,0.49045067216214916
252,0.8357369575095704,0.014528305673597721,0.14727528329855555,0.002459453518276559
253,0.06094043498957926,0.00019218389026994157,0.28655471459454174,0.652312666525609
254,2.0300244624553966e-05,0.9937939864885778,0.0061836092644945335,2.104002303213404e-06
255,0.03328635786816183,0.013206768164204628,0.9257476018644019,0.02775927210323153
256,0.031122163781218647,0.012310537084211235,0.8642572387025577,0.09231006043201234
257,0.07981856557542047,9.142986077190816e-06,0.14986856647619543,0.7703037249623069
258,0.7499153530297827,1.1525069253534686e-09,2.4935971145661753e-05,0.2500597098465646
259,0.00024742924600969056,0.8716289390042643,0.12788647656757882,0.00023715518214705437
260,0.01268822306454466,0.9090513344194395,0.07685850315900798,0.0014019393570079573
261,0.015327588185275052,0.8831880969279426,0.10136736122081381,0.00011695366596854794
262,6.427008086710105e-05,0.9907829248067603,0.009146700473579806,6.1046387929983995e-06
263,0.6004010491163665,3.2040207980602914e-06,0.0029307037231749503,0.39666504313966056
264,0.5434016038169891,2.6609382930818234e-07,7.442938545659296e-05,0.456523700703725
265,3.221026852227003e-06,0.9980554615109565,0.0019408403925110893,4.770696802662518e-07
266,0.0009088447710987634,0.8401323555514113,0.15813469856574874,0.0008241011117412794
267,0.02948045635576781,2.6080678803722413e-08,0.01158490868326424,0.9589346088802891
268,0.01437061651887395,0.04635005651059814,0.9281634825831901,0.011115844387337719
269,3.410652704513482e-06,0.9998575321176856,0.00013896135448408022,9.587512592132726e-08
270,0.14431832240696554,0.3240130547204278,0.5281631754146184,0.003505447457988261
271,0.017992528438922965,0.0411487185011509,0.916692559842386,0.024166193217540235
272,0.06193535877510287,0.9302326829864962,0.007831207413650024,7.508247507440612e-07
273,0.8258657960574035,0.10368295863688655,0.0699537565691153,0.0004974887365946915
274,1.7023553844305263e-05,0.9969487922295941,0.003026942026071791,7.242190489760645e-06
275,0.004328453390535234,0.453483598991216,0.5398294638688865,0.002358483749362252
276,0.9195350455361407,0.02746202775619329,0.05250586867512335,0.00049705803254258
277,0.02576098796677414,1.0896305686250572e-06,0.008438750411220736,0.9657991719914364
278,0.016155223076030914,0.8179300745476416,0.16547428693303748,0.0004404154432900749
279,0.007631693718971486,0.12207204922489266,0.8620195907940067,0.0082766662621291
280,0.21845854030468678,0.0029074576359646334,0.6095041087091583,0.16912989335019038
281,0.009337276859714198,0.0006764417055771329,0.7814706581856129,0.2085156232490958
282,0.8388396471000787,0.0526706275034089,0.10131846233030722,0.007171263066205081
283,0.8935002315166148,4.356286095932276e-07,0.004678729890082229,0.10182060296469331
284,0.8577585577139739,0.00024104085952934032,0.09175607666795796,0.050244324758538926
285,0.5270459834771617,1.6763249143561124e-07,1.9842364995326888e-05,0.4729340065253516
286,0.00011264066968120846,0.9635964193511576,0.036253849871229434,3.7090107931816844e-05
287,1.0041076702794546e-05,0.9989250873725942,0.0010641099109938868,7.616397091175467e-07
288,0.03248448458405489,0.05749517886151682,0.8842025185345809,0.025817818019847494
289,2.2183992684374308e-05,0.9841451362854414,0.015782390372475037,5.0289349399167e-05
290,0.0017710513557219203,0.9907033676204495,0.007522469336140014,3.111687688522294e-06
291,4.093876955821044e-05,0.9856466789834066,0.014302763341498187,9.618905537091765e-06
292,0.08901243601738323,7.434153347855484e-07,0.02857627003329868,0.8824105505339832
293,0.039340530956496346,2.6497157628364986e-07,0.008681904548206823,0.9519772995237206
294,0.31809398513013826,1.6025298479699955e-07,8.482223134211608e-06,0.6818973723937428
295,0.8046078879850349,0.17241143576125825,0.02293289935847937,4.777689522751211e-05
296,0.0007602076087077691,0.918804835945803,0.07983207824196294,0.0006028782035262901
297,0.0002650760889676577,0.9913975442643187,0.00833150703326893,5.872613444749452e-06
298,0.04204983979796378,1.2560025405548017e-05,0.3111366390867791,0.6468009610898516
299,0.0011221154927658762,0.9394945441825066,0.059294736895114115,8.860342961340504e-05
300,0.7386317792025009,1.1666318121768698e-06,0.014960377346861802,0.24640667681882508
301,0.9587122181093024,0.000622763653119637,0.0286176602984331,0.012047357939144913
302,0.001521250897201064,0.9323568697250881,0.06554629453372603,0.0005755848439848764
303,0.030432341736061096,7.73534911018808e-05,0.06253149984405387,0.9069588049287831
304,0.13736545210455947,0.00010370194245495743,0.47507665920360664,0.3874541867493788
305,0.9839170206557404,0.0002757867385068001,0.011908395223102403,0.0038987973826503323
306,0.1442729469134733,0.8489322283590894,0.006775780934543867,1.9043792893264257e-05
307,0.6275450684663288,2.3699760315154933e-09,5.155940505447789e-05,0.37240336975864063
308,0.9755747060889461,5.981568075097306e-05,0.017353483209422163,0.007011995020880808
309,0.2808924249135416,2.886807669842594e-07,1.1830156932435382e-05,0.719095456248759
310,0.8094377325466579,2.1976828364493883e-07,0.0012833703151159542,0.1892786773699426
311,0.01661920690819804,3.438067235001728e-06,0.041071322946490456,0.9423060320780766
312,0.03921733018285765,6.784894166493128e-08,0.0010509100382318111,0.959731691929969
313,0.14721970071477186,8.261367554564668e-09,4.002026340427834e-07,0.8527798908212264
314,0.030931200448229446,0.006422156109624407,0.9295221240083972,0.03312451943374901
315,0.8453538403830462,0.14768734897009067,0.006840198484175049,0.00011861216268811871
316,0.8662066968098732,0.0022261939002980787,0.12689344684172138,0.004673662448107437
317,0.06438752754740927,0.026412297098961375,0.07205433199207233,0.837145843361557
318,0.0001594120328829774,0.9495775541226601,0.049972859298567235,0.0002901745458898354
319,0.13859615645080844,0.01350375136253214,0.7700643193185118,0.0778357728681476
320,6.122415837288666e-05,0.9863160518055224,0.013594851666211733,2.787236989293825e-05
321,0.03172677596758693,0.0024916634536832896,0.8506825294757663,0.1150990311029635
322,0.06747802017151708,5.32231921923841e-06,0.18416196730828202,0.7483546902009818
323,0.9405905798713344,0.0006607900867727246,0.0507648134586688,0.007983816583224054
324,0.0009768856348616834,0.8728370850115413,0.1258547945611925,0.000331234792404462
325,0.6132705668830503,0.00014465953138004446,0.2643334683151867,0.1222513052703829
326,0.0014844145581278155,0.8185445617262095,0.1797513944740732,0.000219629241589596
327,0.04477560058812346,3.07099682593384e-08,0.0014085304187329965,0.9538158382831754
328,0.3477552421983212,0.6460309381078344,0.0061998679711721995,1.3951722672022377e-05
329,0.1229939364109379,0.0001597197033052065,0.6417773988967772,0.23506894498897965
330,6.440905504340722e-05,0.9980827702137693,0.0018494091054099032,3.4116257773840764e-06
331,0.00017641076171927647,0.9695953165097128,0.03020413218453007,2.414054403785771e-05
332,0.0007213956351491194,0.8899749790426964,0.10902578059962609,0.00027784472252839385
333,0.881391497011918,0.05672073903026422,0.06130543130896864,0.0005823326488489874
334,0.0005931701669383521,0.9341640674205566,0.0646266057023417,0.0006161567101635181
335,0.008842215108489202,0.9885511614419769,0.0026053662589535886,1.2571905802615838e-06
336,0.875914404789478,0.008071986055227385,0.11346117098615491,0.0025524381691396036
337,0.43679689436764857,1.245687194371581e-05,0.0010725902145679515,0.5621180585458398
338,7.582566049156827e-05,0.9195620171427247,0.08018101909307136,0.0001811381037122389
339,0.9176738137263659,0.020238983014423676,0.0612543404121884,0.0008328628470220916
340,0.028737279933417542,4.035957527854494e-09,0.0011795474997446293,0.9700831685308804
341,0.7695970951297478,1.5164507304935855e-07,0.0034950981515623402,0.22690765507361677
342,0.04290021651306626,5.4187090091663935e-05,0.04489957571635351,0.9121460206804886
343,8.562257291402957e-05,0.9744066394278738,0.025468501475476114,3.923652373602882e-05
344,0.007076831735533245,0.8930288579193009,0.09895705162663808,0.0009372587185277907
345,0.5040480194825023,4.721254131882139e-08,0.0004858386734269951,0.49546609463152935
346,0.06283701491806286,0.205838703601518,0.7210664273809875,0.010257854099431685
347,0.3226417698321694,1.1759555042593504e-07,0.010848620314418547,0.6665094922578615
348,6.855310354143373e-05,0.9260047607117713,0.07382894225663665,9.77439280506783e-05
349,0.03303076650721912,0.011928123378294546,0.89605388646378,0.05898722365070624
350,0.03098204149581031,0.0005423299324598517,0.7683362648747747,0.20013936369695526
351,0.0007458770882999051,0.9899260901347744,0.009319299731102824,8.733045822914193e-06
352,0.00022750699483319194,0.8705604044996302,0.128920696484633,0.00029139202090347596
353,3.03635297571641e-05,0.9977037354764278,0.0022646009112973426,1.3000825178152132e-06
354,1.803414471325156e-06,0.9991441097344309,0.0008538660058831169,2.2084521464863705e-07
355,0.01173616186703699,0.2045219928239602,0.7715911034580446,0.012150741850958316
356,0.057617919743815034,0.001431320362127407,0.7291216049812713,0.21182915491278612
357,0.8640343268211799,4.3257710118898866e-07,0.002217075169117387,0.1337481654326015
358,0.010790509941329834,0.02140390860717198,0.9272512463072798,0.04055433514421825
359,0.00015791369940103373,0.9909765309445763,0.008830535399000264,3.501995702249132e-05
360,0.5203654774850823,0.01989128809781674,0.43933804204882215,0.020405192368278827
361,0.0004357376419314334,0.9330934409401741,0.06635513043991308,0.00011569097798139475
362,0.0022877670322811847,8.497420717894351e-07,0.0004742608376575999,0.9972371223879894
363,0.006232961835893621,0.9927112665301822,0.0010556003641475123,1.7126977660148615e-07
364,0.002004000095618172,0.2506928393692934,0.7433218286511508,0.00398133188393753
365,0.0774799282820667,0.0007815379387752894,0.7937584391360252,0.12798009464313287
366,2.0126609546367733e-05,0.9936910386836447,0.006284758165089159,4.076541719822791e-06
367,0.04529122389336523,3.0227616389589117e-05,0.23306072049663512,0.7216178279936102
368,0.8559564559249806,4.180077040078619e-05,0.06346775076840014,0.08053399253621837
369,0.00013960930736945718,0.9962263726787711,0.0036326268326473173,1.3911812119958846e-06
370,0.8337521218687391,1.2047247663673416e-06,0.00218933088198318,0.1640573425245113
371,0.11189400316477723,5.331063841961911e-05,0.30886255346209396,0.5791901327347092
372,2.4918642421952174e-05,0.9866035600123425,0.01335977383397069,1.1747511264660236e-05
373,0.013692009414731114,0.02363054496931035,0.8833595919528034,0.07931785366315493
374,0.9285120213180356,0.0003597832248783599,0.050945142809308654,0.02018305264777724
375,0.039599193891649,0.01950903516731689,0.9227667940750036,0.018124976866030398
376,0.0011998995928231312,0.9700149464645339,0.028728529250437784,5.662469220529257e-05
377,0.698416050165631,0.19965992434369714,0.10152233669534362,0.000401688795328206
378,0.8246308201644295,1.2507531177180854e-05,0.006184893381764199,0.16917177892262916
379,0.04104635019823843,0.009996205629819835,0.9035193594145223,0.04543808475741939
380,0.00014996792043565349,0.9758801978687976,0.023960336272763092,9.497938003758895e-06
381,0.2391632557630091,4.2623518283723395e-05,0.0001808244904182495,0.760613296228289
382,0.7476774584174904,3.3195823633807155e-06,0.038287854626812355,0.21403136737333384
383,0.01707281649515939,0.0018322448418733952,0.7512431525561293,0.22985178610683796
384,0.05249960609843238,0.0004087617991839899,0.7250419948422394,0.22204963726014415
385,0.005479636810971053,0.11480289821568755,0.8557054476521019,0.024012017321239382
386,3.0261748848187267e-05,0.9772582333496099,0.022635358506804433,7.614639473752514e-05
387,0.0007435100412475278,0.9974612479347053,0.0017947785720149377,4.6345203234005964e-07
388,0.9240872584172982,0.0005812337920828646,0.06639027534233069,0.008941232448288107
389,0.0024045118441955245,0.9877937139808863,0.009786899153261188,1.487502165705753e-05
390,0.010901794255837132,0.050487023733017576,0.9167397648859902,0.021871417125154963
391,0.05100126867843247,0.04262579838871321,0.8926819669741173,0.013690965958737067
392,0.0010278997569854694,0.8622741429959234,0.13599967997394732,0.0006982772731437742
393,0.023596795777740723,0.9701978920730112,0.006182292442403142,2.3019706844770064e-05
394,0.0045606256384106165,0.28117233719949186,0.710413184278543,0.0038538528835545057
395,0.8637643669634498,6.540927974637322e-07,0.0013438807305316636,0.134891098213221
396,0.003852832761863548,1.2830391441594556e-09,2.497887008333318e-05,0.996122187085014
397,0.018881239585491497,1.6010340440673777e-05,0.09643236624294838,0.8846703838311195
398,7.01872710242448e-06,0.9990681612008733,0.000924695851154661,1.2422086955040078e-07
399,0.0424553161747062,0.40294422637928823,0.5440298880800272,0.01057056936597837
400,0.0008200209989690642,0.7578526844503459,0.23966884826637733,0.0016584462843076543
401,0.0003224384569528166,0.8886899249044915,0.11072820138209433,0.00025943525646143474
402,0.6029317315669285,1.198115299124597e-05,0.01442253475543776,0.38263375252464243
403,0.05280857016999745,0.0010018148531298738,0.6793975727879955,0.2667920421888772
404,0.8989811882120838,0.08828961093329854,0.012694019488137542,3.518136648000479e-05
405,0.9256554142779786,0.0007488313733603653,0.02282801850605596,0.050767735842605244
406,0.9148569148013531,3.0608198829875086e-05,0.049014578015856104,0.03609789898396109
407,0.8323143804969294,0.000146010620106559,0.0007909613657688029,0.16674864751719531
408,0.0007758471433528804,0.8671984732045745,0.13183394033762147,0.00019173931445110094
409,0.869513200124552,0.0014413574781425229,0.11565908372011784,0.013386358677187645
410,0.9130248194835077,0.00016018624895395515,0.05975979349990315,0.027055200767635255
411,0.770582241940806,2.4530488746949263e-07,0.004439822237371855,0.22497769051693453
412,0.03855883702556894,0.0006196723063350672,0.8424011209238987,0.11842036974419734
413,0.001099836607797608,0.8395600311101459,0.1587022366970281,0.0006378955850283762
414,0.9543499347012945,5.742676815174625e-05,0.024793286721533064,0.020799351809020657
415,0.0014390037011705599,0.7148415599038901,0.28192364050384694,0.0017957958910922223
416,0.9107041187183136,0.00010248283929114488,0.04870641084526598,0.04048698759712911
417,0.0016833852004138347,0.9250089380315699,0.07320221944804738,0.00010545731996902375
418,0.005140117715918832,0.35938952729328577,0.6315789231820947,0.003891431808700691
419,4.112439405781978e-05,0.9638992869785051,0.036035173459840766,2.4415167596149872e-05
420,0.0010173557651787192,0.7424000713688134,0.2555534976891554,0.0010290751768524534
421,0.004324028757102795,0.9257172831826627,0.06910010969020752,0.0008585783700270432
422,0.9320295163643328,8.623811006569513e-07,0.00045836520418878987,0.06751125605037774
423,0.061030006787379826,7.752561570308634e-06,0.16161573424060555,0.7773465064104443
424,0.023755729682486734,0.0650977027139117,0.893988284957647,0.017158282645954526
425,7.97067609827227e-05,0.9174071162722583,0.08230190666954633,0.00021127029721270445
426,0.0023146960040464513,0.9682685709954726,0.0289634042953245,0.00045332870515651333
427,0.003233901418761978,0.8648048381336275,0.13156998134599304,0.00039127910161748485
428,0.00014530511175878255,0.9846261341270257,0.015217252219384619,1.1308541830669207e-05
429,0.0005664546369909496,0.916312788886304,0.08286397912294442,0.0002567773537608623
430,0.0005979619488593439,0.943089975183222,0.05589673955339852,0.0004153233145201213
431,0.08348828165646337,3.5099245468469595e-08,0.02408326200410387,0.8924284212401873
432,2.1720955415989394e-05,0.9645868177944766,0.03532855327917865,6.290797092872763e-05
433,0.03625590973578966,0.04361885844395906,0.8899246146253017,0.03020061719494947
434,0.04773821984874345,3.1044586183536325e-05,0.40607433285159006,0.5461564027134829
435,0.01706906879134897,6.785106204313777e-06,0.04877686690338872,0.934147279199058
436,0.026621150277153394,0.002376552011205358,0.8143841852659676,0.15661811244567367
437,0.0036000293371406,0.9793854371629215,0.016977259680019428,3.727381991854003e-05
438,0.012966276487096043,0.03855870664877436,0.9217481665315113,0.02672685033261846
439,0.012207948854946839,0.0004914789407747832,0.5078318513865756,0.47946872081770275
440,0.000779815871828237,0.9867268348500567,0.012458310324881936,3.503895323297522e-05
441,0.015739550419406903,0.050991849633166435,0.9159102409633958,0.017358358984030896
442,0.00020279005903411156,0.9212271451448005,0.07841228682852137,0.00015777796764408644
443,0.9640961939873434,2.258314967396338e-05,0.02188975924182455,0.013991463621158325
444,0.006606959522971809,0.48953371032151616,0.5011644599907339,0.0026948701647781506
445,0.0584304079410023,1.296745709073922e-09,0.0011187537107999912,0.9404508370514519
446,0.07690159921742062,8.311297239131358e-09,1.7630438595954352e-06,0.9230966294274225
447,0.0012555025580762542,0.9430383561934692,0.05520950692302898,0.0004966343254253415
448,0.5203710149944905,5.313738141258869e-06,0.07448436925754516,0.4051393020098232
449,0.8804923026352511,4.1834441584183794e-07,6.117418915274763e-05,0.1194461048311803
450,0.02835272454444019,0.8180622208583148,0.15313123351796948,0.00045382107927545375
451,0.008261319178895974,9.511191223659533e-08,0.0043961887616991505,0.9873423969474925
452,0.00036173453526169337,0.9928694294645056,0.006756895199689488,1.1940800543331653e-05
453,0.0063056142966307896,0.987979373684976,0.005698166786160413,1.6845232232929917e-05
454,0.0006541201207963493,0.9953225885178868,0.004016608387230435,6.68297408660633e-06
455,0.0004876278534307584,0.9277984677547662,0.0710376430857724,0.0006762613060307828
456,0.0029984970128254093,0.8826745615469401,0.11388030222280263,0.00044663921743187196
457,7.022949103934061e-05,0.9763350492707499,0.023548677861524054,4.604337668662118e-05
458,0.0003080158029727007,0.9452450199704823,0.05415476898514286,0.00029219524140205815
459,0.004997559257237243,0.8640634808768586,0.12871459198884821,0.0022243678770557996
460,0.1533369581057074,3.0398610239716665e-08,0.0009624536225038755,0.8457005578731785
461,0.7432875668815553,1.7284327631760954e-05,0.0034859162427390423,0.25320923254807404
462,0.9836104379517139,0.016336593150288608,5.2898403955010596e-05,7.049404246281243e-08
463,0.17265985205040696,0.0001292139555195542,0.4792726328104553,0.3479383011836183
464,0.9352487465089782,0.0035134907817509537,0.05228825211986556,0.008949510589405244
465,0.016201047466433527,0.8260139169131837,0.15727486648249286,0.0005101691378898263
466,0.7378196810131015,0.00013699167247441878,0.07628874157878812,0.185754585735636
467,0.0639883408879675,1.59999023263516e-06,0.005627864189560915,0.9303821949322388
468,0.5525568397823369,0.001446729180778209,0.3771836406479798,0.06881279038890514
469,1.2716492218498021e-05,0.9912068583165231,0.008760387343376377,2.0037847881900467e-05
470,0.835294207251636,6.10418474863269e-06,0.017931376493399622,0.1467683120702156
471,0.01636797234368266,0.016673120794483014,0.9276506529795925,0.039308253882241996
472,0.07202728232498737,0.1432684989285555,0.7345501993341137,0.050154019412343376
473,0.0007426777255559484,0.8703891102081097,0.12849176376619906,0.00037644830013507986
474,0.30419472077662757,0.03421927425853455,0.6534550085857778,0.008130996379060172
475,0.6324791763789955,1.096414104643327e-06,5.901757165457208e-05,0.36746070963524535
476,0.054558285277235635,0.006568733684360068,0.8745243219915771,0.06434865904682713
477,2.999571772270748e-05,0.9901912700030862,0.009765891398678637,1.2842880512522623e-05
478,0.0013043923484619612,0.8815640039474538,0.11669919620596811,0.0004324074981159491
479,0.6563769181357573,0.01113712878465147,0.27492915943570745,0.05755679364388394
480,0.03416778054051365,7.3462535460772165e-06,0.09758787325961914,0.8682369999463211
481,0.8497036448565043,2.9258625410583845e-06,0.014728234475560972,0.13556519480539372
482,0.026790058922652082,9.40686961889484e-07,0.006810058698907756,0.9663989416914783
483,0.0001254483613689443,0.9505148921505373,0.04933905618195132,2.0603306142303866e-05
484,0.9462899923287944,4.394091336054614e-05,0.014686419339070972,0.0389796474187741
485,0.028709166120222087,0.0884181234581521,0.8530685312530194,0.029804179168606518
486,0.2539271191549173,1.5590791938839978e-11,4.500543450699327e-06,0.7460683802860413
487,0.716285333739956,9.002986833880455e-06,0.023537126023246455,0.2601685372499635
488,0.05731169440106682,5.229730635445054e-05,0.28251918472164106,0.6601168235709377
489,0.023450076066608327,6.840610405330878e-08,0.01781866152547286,0.9587311940018148
490,0.0988136401489978,0.008196877263939957,0.011883651226825448,0.8811058313602368
491,0.015133576364856651,0.3808027288110255,0.5999242458250625,0.004139448999055389
492,0.8530799826866292,2.2220964380189198e-05,0.06124799944257629,0.08564979690641446
493,0.0076711286081912215,0.0029921054720702398,0.8749169183390189,0.1144198475807197
494,0.8955905298873819,5.563699233519437e-06,0.017308672974285167,0.0870952334390993
495,0.00011555196711354678,0.9722530804503314,0.027506787790186976,0.0001245797923679875
496,0.41466319675691565,8.238489881560163e-10,4.8758737318614735e-05,0.5852880436819168
497,0.00018753755835171669,0.954629757132483,0.04515093630344658,3.176900571877507e-05
498,6.125451366577636e-05,0.9604907295646786,0.03939185879546918,5.6157126186286996e-05
499,0.06724171169432265,6.380265125173787e-07,0.00012588686252626896,0.9326317634166387
500,0.00010527930360763647,0.9651174598427352,0.0347363607593171,4.09000943400265e-05
501,0.004863572729745439,1.9533097120156133e-05,0.0009575302097329378,0.9941593639634013
502,1.0132157357181125e-06,0.9997608916200245,0.00023770646148925636,3.887027504965265e-07
503,0.8451455249828705,3.709762773207519e-08,7.100527099718043e-06,0.1548473373924019
504,0.021869955810840374,1.8622368333148468e-07,0.02034647249579418,0.9577833854696821
505,0.007481233305961316,4.844686461781067e-08,3.535776779185985e-05,0.9924833604793822
506,0.02782484063965053,0.0064455210153157964,0.9036494660263009,0.06208017231873273
507,0.9617942999835685,0.002456505442430264,0.033455547532705535,0.0022936470412958615
508,0.7965349808655382,8.181962763949637e-08,0.0005154440763651358,0.20294949323846903
509,0.004322005578667225,0.9372967581581583,0.058064212543893795,0.0003170237192807858
510,0.010747963358846318,0.9693640748720881,0.01977176853839239,0.00011619323067321801
511,0.0003607567624111252,0.9393367867030418,0.060077777048434165,0.00022467948611289886
512,0.590379286228082,6.760269163926757e-08,0.0001549400366374767,0.40946570613258876
513,0.0011253595281338828,0.784520235120376,0.2131222868290377,0.0012321185224524038
514,0.6276533538564165,0.0006132292260552809,0.2952433384955796,0.07649007842194842
515,0.11239996577322317,0.010866661240207798,0.844116328105757,0.03261704488081202
516,9.248588211962894e-05,0.8928488361275658,0.10668749151934152,0.000371186470973116
517,0.023350079721156703,0.22624477983144556,0.7357005741904541,0.014704566256943653
518,0.06868843727687457,7.527046680195401e-06,0.012426842668650028,0.9188771930077952
519,0.7707722031586783,2.391739364892122e-06,0.011991123523404942,0.2172342815785519
520,0.05615333293331451,1.7547301402238626e-07,0.01700353127131209,0.9268429603223594
521,6.974491226755337e-05,0.9861317178253207,0.01378608190602257,1.2455356389103177e-05
522,0.283300939611975,6.231233292261971e-05,0.29807037987064516,0.4185663681844572
523,0.7782869206063034,0.005883041167561003,0.2024054649364238,0.013424573289711755
524,0.002875225149357119,0.35709903504569573,0.6366596925116433,0.0033660472933038387
525,0.03118355032340191,4.78180968803155e-09,3.2421216418951105e-07,0.9688161206826242
526,0.00025330363916831216,0.9684751692343426,0.03122752619166618,4.4000934822895e-05
527,0.03209091175521905,0.003414257592558449,0.8547158552586045,0.10977897539361801
528,0.8976594813431471,0.08156790665115694,0.02025790040501238,0.0005147116006834378
529,0.5344669056232589,1.5260041005145063e-05,0.0226651043555809,0.44285272998015507
530,1.045330879477322e-05,0.99494253925917,0.005041472298746036,5.535133289277818e-06
531,0.9494735561819346,4.2836003505057573e-07,0.0009026147808640678,0.049623400677166175
532,0.017411540080387162,0.00033923229417558414,0.6989258410962789,0.2833233865291584
533,0.9546705023936142,1.8122917505644008e-06,5.261148534720728e-05,0.045275073829288005
534,1.4144766828255434e-05,0.9924887512720332,0.007491906238990768,5.197722147761124e-06
535,0.028248449209066617,0.039526880919423225,0.9169544168933171,0.015270252978192927
536,0.0015772710929538836,0.9844633172734076,0.013942396786608338,1.7014847030235458e-05
537,0.00026033648085079214,0.9985807546779033,0.0011585810918551698,3.2774939078657334e-07
538,0.04885408376667568,0.0001487119548994644,0.41918421069239975,0.5318129935860251
539,0.0002381046212616369,0.8912725150036589,0.10818009533858977,0.00030928503648971025
540,0.7618984629549878,0.00035695183057715706,0.1915317021725055,0.04621288304192951
541,0.002174396977007767,0.946245366848161,0.05135713483421682,0.00022310134061452586
542,0.7772962200426741,3.562343656800005e-05,0.0034912742720829724,0.21917688224867507
543,0.000683154944833877,0.8609839068023017,0.13689649236257667,0.0014364458902877345
544,0.8569714714311655,0.00024548671494260544,0.10653371011471054,0.03624933173918142
545,0.49530815473241346,0.0054734223278196685,0.11365045868231886,0.38556796425744805
546,0.12008660829546126,1.9680481963082895e-05,0.37098984447396804,0.5089038667486077
547,0.029982621522506494,0.0002601026170633104,0.5771884679744957,0.39256880788593446
548,5.305190818237177e-05,0.9996176940779375,0.0003290480598652983,2.059540148248271e-07
549,0.00018925345746087342,0.9887158278741065,0.011081367365370298,1.355130306243869e-05
550,0.1341200946531307,6.892431467382705e-09,0.015007539025241955,0.8508723594291958
551,0.6123568803371372,2.9274910260259776e-07,0.00036724251440785387,0.3872755843993523
552,0.27246073649134384,3.688109013582504e-06,0.13819295674348103,0.5893426186561616
553,0.6986647087999196,3.114384773613305e-05,0.08897180984759763,0.21233233750474662
554,7.491698793090439e-05,0.9317479811995574,0.06802542887518638,0.0001516729373253399
555,0.00023797056367943174,0.9920188676214822,0.00774041051982574,2.7512950128609373e-06
556,0.054585919251969824,0.053024895724591445,0.8550546684264771,0.037334516596961666
557,0.04521268617313347,0.015227391563662344,0.9080842620055938,0.03147566025761057
558,0.0067660904938427,0.14454775980561013,0.8439169388426114,0.004769210857935852
559,0.8804576318859204,0.00015783041517240676,0.08888780806009766,0.030496729638809603
560,0.9961664130360417,0.00038991532930800394,0.00035456090071289264,0.003089110733937381
561,0.8839903886496663,0.00011160639805089711,0.006930079870955605,0.10896792508132723
562,0.07916970937234387,0.0003621105549255098,0.7138874839047917,0.20658069616793887
563,0.3295600738872288,6.160311336653364e-06,0.0001549939993323606,0.6702787718021022
564,0.262869221130114,0.011692687254455086,0.7016525306030408,0.023785561012390263
565,0.5267603050051017,0.451152491036784,0.021973520722347997,0.00011368323576613337
566,6.870088071473135e-07,0.9996105434218776,0.00038874317157876426,2.6397736309966513e-08
567,0.3013395528850932,1.202108388300349e-09,5.8245047025540616e-05,0.6986022008657728
568,8.247433831207963e-06,0.9976520628121986,0.0023337835701848168,5.906183785542265e-06
569,0.8988105194141252,0.02635285287718971,0.07297301341820817,0.001863614290477008
570,0.000156208084012636,0.9903809799622764,0.009457049558830673,5.762394880259543e-06
571,0.0002460321163309061,0.9754048542489456,0.02430400369693474,4.510993778868087e-05
572,0.9858289248405795,9.473922171123053e-05,0.011353356464162637,0.002722979473546702
573,0.05280514822587048,0.0001718419021032624,0.003036888508628286,0.9439861213633981
574,0.5845755228853224,0.38919835678229775,0.026186766539024787,3.9353793355111255e-05
575,0.0004099239606662326,0.956334624325319,0.04318016293669118,7.52887773237656e-05
576,0.028735884790486152,1.1013596152513163e-05,0.04963711840047388,0.9216159832128874
577,0.0014776086939722723,0.932116374985397,0.06631139257671266,9.462374391789359e-05
578,0.007851473719846753,0.8863889583749642,0.10545427778259635,0.0003052901225928988
579,0.1682936843436919,0.03829216945200169,0.777379724530181,0.016034421674125308
580,0.770681983787769,0.00041270231665715154,0.10650993039807251,0.12239538349750147
581,0.004594355603685297,0.9905309774703914,0.004870607806128591,4.059119794740229e-06
582,0.00038539933513013374,0.9466771180767495,0.05233772031839974,0.000599762269720681
583,0.001654782328648919,0.9041714386148393,0.09320543632608037,0.000968342730431328
584,0.000814998912669906,0.8951771156614878,0.10379558351502069,0.00021230191082156392
585,1.9784369085737073e-05,0.9992980084501611,0.0006815565924419235,6.505883113603653e-07
586,3.0076885141029714e-05,0.9917133610448403,0.008253329913866602,3.232156152149998e-06
587,0.0025201932395132473,0.902377747364364,0.09462360099420025,0.00047845840192249693
588,0.002927310986724528,0.8724099445673112,0.1234127045052356,0.0012500399407285323
589,0.015230274985457655,0.004256166969190471,0.9153526581662924,0.06516089987905944
590,0.014322870715771686,4.470189724719976e-06,0.1581245392537603,0.8275481198407434
591,0.073147835660063,1.38178299858778e-05,0.13667352555516352,0.7901648209547877
592,0.0055262341691808235,6.235388254019992e-06,0.0032176870680523115,0.9912498433745128
593,0.0026121907622345796,0.9728184424719915,0.02448900532491544,8.036144085856012e-05
594,0.025971776605985934,0.0023066263331907497,0.8380601358897406,0.13366146117108255
595,0.0026832219658144436,0.9576284289579501,0.03958893532288313,9.941375335242538e-05
596,0.00015562548199790342,0.9629384372479162,0.03679528529706756,0.0001106519730184072
597,0.046302207175068465,2.1612639175662896e-06,0.08050496483919078,0.8731906667218232
598,0.9636250362090044,0.034405914359735335,0.0019460695751752043,2.2979856085216813e-05
599,0.94662343611545,0.001886103750539058,0.03945036736837977,0.01204009276563118
600,0.03813537322868463,3.2387432987193944e-05,0.18663307467179135,0.7751991646665368
601,0.00024111720217877137,0.9323112623785061,0.06725002245436279,0.00019759796495237252
602,0.009783853179144207,0.030612817511980025,0.9114915715698014,0.048111757739074355
603,0.036212533946821876,0.0018398490965004194,0.7708039171118751,0.19114369984480264
604,0.16377972552794734,4.2914997155678364e-05,0.38570238875682566,0.4504749707180714
605,0.04500110438144071,8.386926091917566e-06,0.1847804168632394,0.770210091829228
606,2.6363894008667838e-05,0.9819441025798175,0.01793326427509358,9.626925108033149e-05
607,8.592524994725043e-05,0.921038364832753,0.07856741147446222,0.0003082984428376422
608,0.0816428379816817,0.021054906420958107,0.782497029680627,0.11480522591673317
609,0.29322384466966195,7.927040925056167e-07,0.015571134941519418,0.6912042276847261
610,0.022701947967967307,1.4037266298237001e-05,0.0567170794357943,0.9205669353299402
611,0.10031737305513917,0.32300997894165323,0.5629574460204658,0.013715201982741728
612,0.04961188851298608,1.0865174785399141e-05,0.07181834370583752,0.8785589026063909
613,0.0940060328710067,2.7708792415024976e-07,0.001456472185885005,0.9045372178551842
614,6.575368540141035e-06,0.9935265479694331,0.006464919227097178,1.9574349293703597e-06
615,0.8543296650123073,1.2157280681014512e-05,0.033010802011138166,0.11264737569587353
616,0.004210196167512914,1.4549296409458245e-09,3.641761473391067e-05,0.9957533847628235
617,0.0012752543025217288,0.9894891896520409,0.008942141491710591,0.000293414553726858
618,5.979462019265039e-05,0.9906580472478029,0.0091093485758044,0.00017280955619980245
619,0.0006988774295372399,0.9406621234751239,0.05811800810694311,0.0005209909883958392
620,0.0011249433940308453,0.9454252488158824,0.05313288205136488,0.0003169257387219858
621,0.0004045500608153829,0.9418031679724445,0.05766542037040853,0.00012686159633167426
622,0.2631769491711329,0.2474363519841174,0.4853644852825007,0.004022213562248971
623,0.00021990005889364653,0.926822699106459,0.0727666049975556,0.00019079583709187916
624,0.0001090815332188831,0.9306775392211935,0.06911107223166477,0.00010230701392294912
625,0.0057869319229238644,0.985794915147365,0.008395709943193708,2.2442986517462162e-05
626,0.013125682464994239,0.02211883343360363,0.9325568825076023,0.03219860159379979
627,0.04053820788107924,0.018663156792629365,0.858265577143877,0.08253305818241441
628,0.07946956931531902,1.634327310926555e-07,0.0014230556174949132,0.919107211634455
629,0.9664042500136666,2.981635442324261e-06,0.00478393014893301,0.028808838201958186
630,0.0415213761944163,1.0322514810153755e-06,1.7215708065278922e-05,0.9584603758460374
631,0.00016946040907809117,0.9891855394026683,0.010623719298857621,2.1280889396097504e-05
632,0.03680320092239798,7.259060894329327e-05,0.44403450804038186,0.5190897004282768
633,0.2445666987348564,0.00045153583887035093,0.4805383300723901,0.27444343535388316
634,0.359314819217295,0.015214949265605116,0.6072778335140284,0.018192398003071403
635,0.008008922108853789,0.04804464880781283,0.9258285156783087,0.01811791340502462
636,0.0004340468943403032,0.9665663185566871,0.032388846409528674,0.0006107881394439576
637,0.9361497544053052,0.0031634366663166433,0.005303148798408019,0.055383660129970175
638,0.2057607078154261,0.008781001029899552,0.658859668621888,0.12659862253278623
639,6.13927521097069e-05,0.9834605350719625,0.01645498651026126,2.3085665666398373e-05
640,0.06475837498808305,0.6084092202095205,0.32487137522628595,0.001961029576110552
641,0.005609829451208923,0.4043527913351846,0.5831549401962359,0.006882439017370651
642,0.7537171066439302,1.5290982652747266e-07,0.0005822459459637611,0.2457004945002795
643,0.7861911214358136,8.437481903583147e-09,0.00044673012210066584,0.21336214000460385
644,0.0009392175380803211,0.9357275882348793,0.0630224677702735,0.00031072645676674736
645,0.03380359942942919,1.0080811337874361e-06,5.768905270503196e-06,0.9661896235841665
646,0.00022839544235875938,0.9930278610150817,0.006716036149180358,2.7707393379250226e-05
647,0.09916662661887053,8.132246242485303e-06,0.15116658244513173,0.7496586586897551
648,0.0009443665672286728,0.9761101860019213,0.022929070414254234,1.6377016595851005e-05
649,0.00010732422327815591,0.9415548241788216,0.05824701926709926,9.083233080095424e-05
650,0.6977098895505729,6.47178170108314e-08,0.00016594520344798618,0.3021241005281621
651,0.00019208603176259264,0.9638877689066621,0.03581492209105351,0.00010522297052197303
652,0.8686560855500446,0.05678383669967765,0.07421182529176437,0.0003482524585134176
653,0.0010770230811402313,0.8674444555219364,0.13122663149892022,0.0002518898980029795
654,0.08216872261081376,6.621684609233822e-07,0.008203509056271312,0.909627106164454
655,0.4837579455445447,6.59393048514632e-08,0.00032113195546897174,0.5159208565606814
656,0.0003986415546261386,0.9860996030049705,0.013480411061643853,2.1344378759627606e-05
657,0.00010180132519480611,0.9905569799543943,0.00933272544441413,8.493275996757507e-06
658,0.00016848215079848862,0.9276371173915504,0.07208967177316475,0.0001047286844863032
659,2.855751879459998e-05,0.9700257506931349,0.029914093003254566,3.159878481604334e-05
660,0.034430316165677,8.185184055346681e-07,0.03999606917931599,0.9255727961366014
661,0.0008178551720642604,0.9245570647146485,0.07426720200842203,0.0003578781048653231
662,0.016891227999076337,0.6561594304609527,0.31872730598683086,0.008222035553140113
663,0.003123747213602551,0.8749464774013328,0.12148920069525487,0.0004405746898098836
664,0.002700345596035248,0.9219335859367905,0.07508099830234419,0.00028507016483005364
665,0.0007784654251015237,0.942311652399484,0.05683883583112545,7.104634428888016e-05
666,0.03901262953709964,0.021997530923984883,0.1510894255458844,0.7879004139930311
667,0.0007380898224932219,0.9471426595992904,0.05116229318082294,0.0009569573973934243
668,0.00032044428090711834,0.744265000555741,0.25450490557559097,0.0009096495877609991
669,2.646640355794512e-06,0.9997364723961814,0.0002608410087850129,3.99546778052276e-08
670,0.0012085652117281417,0.8789078842692444,0.1184585358183092,0.0014250147007180997
671,0.0007641550655211025,0.90686324341307,0.09200634258057416,0.00036625894083469526
672,0.0007541614724875161,0.9890746332681267,0.010090539465963083,8.066579342261883e-05
673,0.12623777919451734,1.7014119322469972e-05,0.04762597299501027,0.8261192336911498
674,0.000791240466111072,0.8485437478857099,0.14960700681392058,0.001058004834258528
675,0.01848988806192359,4.6984839054689256e-08,3.2271206201651014e-06,0.9815068378326173
676,0.9109669874405887,0.0006630243465314231,0.07812944719160098,0.010240541021278951
677,0.43767662690632486,3.307721178818229e-09,0.0001010778418116156,0.5622222919441423
678,1.3120698708035533e-05,0.9785007009428783,0.021473328319855302,1.2850038558233226e-05
679,0.9156424377179426,0.016584939961079393,0.06678651051302283,0.0009861118079549566
680,0.024912628514453635,2.1819083564389822e-05,0.08232593580058613,0.8927396166013959
681,0.027741714680165643,1.1530723823448395e-05,0.18105089383159287,0.7911958607644181
682,0.054932606562085304,1.9016455485818742e-05,1.3720336428027974e-05,0.9450346566460008
683,0.049492827122873166,9.814424800602993e-05,0.10072447309207481,0.8496845555370459
684,0.02268655831144686,0.9060224339832809,0.07114864884100205,0.0001423588642703544
685,0.002083163020050009,0.30017825426465755,0.6946861784261303,0.0030524042891620583
686,0.7670764025395642,3.505965643288165e-09,0.00035091770175543573,0.23257267625271463
687,3.026456195197054e-06,0.9994815939338965,0.0005140412035454612,1.3384063627924558e-06
688,0.8920707303035973,0.014359747502107618,0.09152495937591092,0.0020445628183842503
689,0.00013154883218980477,0.8994032889336816,0.10032782044073105,0.00013734179339753536
690,0.0003803736499398471,0.7831344538963422,0.2157072849769043,0.0007778874768136894
691,0.9250667854428812,0.0005099285428232684,0.03780223387011523,0.03662105214418024
692,0.6574131684721094,3.240367394542163e-09,8.407784689414072e-06,0.34257842050283377
693,0.015165419093851733,2.8964434828168554e-05,0.273363966533199,0.7114416499381211
694,0.3630437665978881,5.012800741638742e-09,0.00028847859446790714,0.6366677497948433
695,0.05689759472202407,8.861179966220986e-05,0.27988171866798595,0.6631320748103279
696,0.003291177838418094,0.8933036928706498,0.10285795560441247,0.0005471736865194659
697,0.003906940243988509,0.9848399753619654,0.011222025335272471,3.1059058773622635e-05
698,0.042816462894382235,1.693754848841514e-05,0.1699016935227331,0.7872649060343961
699,0.07697732041890203,0.1394861615850448,0.7730228408873236,0.010513677108729443
700,0.0013940671070101528,0.9253355250315102,0.07253761480188495,0.0007327930595945176
701,0.03025848337380931,6.292423521248375e-09,5.599844990326928e-06,0.9697359104887768
702,0.9555511214022361,2.8602898391584918e-06,0.0055339504690283346,0.038912067838896496
703,0.06495188473310452,0.0017781296407482106,0.844935451189935,0.08833453443621246
704,0.9114732888662382,3.675701312032973e-05,0.036723136994954636,0.051766817125686676
705,0.19532570631972523,2.424953256737402e-05,0.16462969943779732,0.64002034470991
706,0.9829852871051039,0.0013777993919259917,0.014986704763394525,0.0006502087395756999
707,0.07603038329180103,3.4604963457844195e-05,0.3381912571767342,0.5857437545680069
708,4.6596894489246045e-05,0.9762000566265512,0.023671872200983376,8.147427797599609e-05
709,0.9793959104299423,0.007087703870187899,0.012361665420419053,0.0011547202794507923
710,0.1345016916049249,0.4312154004639772,0.4225436237704051,0.01173928416069276
711,0.005961963007651948,0.9631565770517188,0.030763331959816502,0.00011812798081289323
712,0.5988316745267122,7.265877871275439e-07,0.014375437366550134,0.3867921615189505
713,0.0002912715173939013,0.9715746948251852,0.028108307907211662,2.5725750209269285e-05
714,0.09589741365295998,0.00010590533242745766,0.24569534259597897,0.6583013384186336
715,0.00015186350180825824,0.9079989819342767,0.0916047488672071,0.0002444056967078621
716,0.13529889994057478,2.714754271433302e-08,3.7462777071601766e-06,0.8646973266341753
717,0.0003771507666605888,0.9728077513676087,0.026758913425443474,5.618444028734202e-05
718,0.00024000862337048443,0.8458035633723497,0.15357102039137338,0.0003854076129062922
719,0.01033550734447709,0.0003812141098207226,0.39026525355269337,0.5990180249930088
720,0.0031843319392429854,0.8856747029409966,0.11102104288353128,0.00011992223622933767
721,0.05032923832369063,2.5585175039421593e-05,0.13142607073883456,0.8182191057624354
722,0.0104881226080697,0.956159881359314,0.03303381963087,0.0003181764017464702
723,2.312538372229487e-06,0.999207202170432,0.0007901990125531934,2.8627864261834707e-07
724,0.0005133678554686031,0.9455452120388035,0.05369465448186177,0.0002467656238662021
725,0.0010183365680405095,0.9247782733571105,0.0739696302347327,0.00023375984011647256
726,0.00022406287582221596,0.8451977131118806,0.15426414572374433,0.0003140782885528531
727,0.051523310732627434,0.00673221330099685,0.8375993468711602,0.10414512909521545
728,0.026586705842945663,1.2715050312550014e-05,0.1839024839085512,0.7894980951981906
729,7.62252452460222e-06,0.9993961630379129,0.000593289368317734,2.9250692444460768e-06
730,0.0016272622992194886,0.8499377838581333,0.1474306205702491,0.001004333272398019
731,0.05884092982732943,0.0007695978490534964,0.7846589813035214,0.15573049102009556
732,0.16526900342516684,0.4710050361608124,0.11116924658133433,0.2525567138326863
733,0.1471339764681166,2.244258250735318e-05,9.812102314764688e-05,0.8527454599262284
734,0.05983938847102952,0.010172026474509342,0.8882154900179352,0.041773095036526
735,0.9823549489677171,0.0010892448611069705,0.013893573794629304,0.0026622323765467235
736,0.9413230848238648,0.0001507083127164333,0.039421131162540014,0.01910507570087872
737,0.033957723564505576,0.3595918065050062,0.6041591040234217,0.002291365907066639
738,0.03207598665300614,0.020462088335626384,0.9207292606281969,0.026732664383170575
739,0.8770105667664888,0.00010774103442406699,0.012616704247098294,0.11026498795198876
740,0.12976069703372123,1.5227301831177244e-06,0.11301081713383279,0.7572269631022628
741,4.9499823268253924e-05,0.9941371267371164,0.005798245822533695,1.5127617081699862e-05
742,0.14358913817234714,1.3718587785529388e-06,1.261631831900816e-05,0.8563968736505554
743,0.9453247837373796,0.0059476619187796235,0.047900706098833956,0.0008268482450067156
744,0.06834878333244351,0.008854843814890098,0.8371704756014134,0.08562589725125297
745,0.0019741189539316554,0.9896550359771947,0.008365370391142945,5.474677730591056e-06
746,0.0001862580338316611,0.9603315466850664,0.03938094207085114,0.00010125321025078949
747,0.9525294575392537,9.776197027474448e-07,0.005537126551339127,0.04193243828970447
748,0.06280652233931225,0.0646394110581446,0.8453058982576815,0.027248168344861618
749,0.0008806961363092717,0.9247735191598554,0.0741017822499019,0.0002440024539332791
750,0.0007578001098321294,0.8855841534479224,0.11349579464199609,0.00016225180024931357
751,0.07168396243231571,2.78226457770218e-07,0.000849235069376201,0.9274665242718504
752,0.11954324261579742,1.4203960578117415e-06,0.03175085445135374,0.848704482536791
753,0.9806423624022311,4.0549979890376705e-06,0.0009636063724764132,0.018389976227303387
754,0.0007956260536269751,0.940810127123461,0.058223852038870066,0.00017039478404199028
755,0.0017526676054153607,0.9825459518648403,0.01566868677445985,3.2693755284485935e-05
756,0.7365676546134806,0.22681302914064488,0.036441576481168116,0.00017773976470638757
757,0.002823465390777014,0.8844477769884819,0.11197703349893388,0.0007517241218070359
758,0.9856799010265875,3.1674639519415226e-08,0.00014322068014357986,0.014176846618629215
759,0.4640245820169506,9.625832381189301e-08,2.3105560398015773e-05,0.5359522161643275
760,0.8815251058766369,0.006306825935213984,0.10267193223937289,0.009496135948776185
761,0.0003572406897269954,0.8754844642857554,0.12386438335980164,0.0002939116647158994
762,0.7386512143979741,0.017371362875831485,0.23834658658388252,0.005630836142311813
763,0.02283538988623186,5.501596754056865e-05,0.025903085078673997,0.9512065090675536
764,0.005448974503253589,0.9300637395804706,0.06337928203473163,0.0011080038815440255
765,8.10386476211404e-06,0.9976216573492427,0.0023691298585529715,1.108927442356521e-06
766,0.33752742698803484,1.07955949947058e-06,4.287636107429545e-06,0.6624672058163583
767,0.863605184601398,0.0023413634174559656,0.12334645538522425,0.010706996595921848
768,0.06960274744235084,0.0008200350708607936,0.08043501545742328,0.849142202029365
769,0.00023884925467866012,0.8943272464157985,0.10516190055098554,0.000272003778537244
770,0.034748687816564774,0.021600811808990098,0.8190327393774052,0.12461776099703985
771,0.13911010327929435,3.773091181948591e-05,0.16390735212866664,0.6969448136802195
772,0.7621883622731327,0.0006839957267793422,0.20812000248427728,0.0290076395158108
773,0.916766061813434,0.0115616767577296,0.06836969407820832,0.003302567350627951
774,0.0001481458010747257,0.9678098126492596,0.03201193173739925,3.0109812266438476e-05
775,0.9279380907711166,0.002308857198810409,0.056085993902042504,0.013667058128030568
776,0.015679860957877937,0.019215432219355996,0.9208180558100111,0.04428665101275497
777,0.011681287438081826,0.04318762559842065,0.9228288904567594,0.022302196506738068
778,0.7788364436233054,1.1382087432501008e-05,0.029707850679722966,0.19144432360953922
779,0.0002006322938997469,0.9725495113087668,0.02719524342271327,5.461297462025957e-05
780,0.00261722558255331,0.35597801990161093,0.6393060643070337,0.002098690208801922
781,0.0001155924731467062,0.9555936290804926,0.04422496997245595,6.580847390473276e-05
782,0.021260818724620364,0.9487852786506173,0.029853890316609295,0.00010001230815309397
783,0.000364919050907228,0.9704852645590993,0.029091298818887227,5.851757110620234e-05
784,0.054574951082751934,0.02449511648901156,0.8980030028122821,0.02292692961595448
785,0.03462497883620059,8.361836809319579e-05,0.09431818679306297,0.8709732160026432
786,0.0001348962040414274,0.9981042621326308,0.0017520650534436993,8.77660988396939e-06
787,0.90984573022661,0.0002163880442438976,0.0739791396499469,0.01595874207919917
788,0.5759216774728533,8.605115566420258e-05,0.006390383937460794,0.4176018874340217
789,0.003270567450030665,0.971791577839042,0.02489509492885789,4.275978206936626e-05
790,0.0007461784710217941,0.9913858864341587,0.007855868364968255,1.206672985130815e-05
791,0.016432032776544796,5.591524357247174e-07,0.0016094457167331849,0.9819579623542862
792,0.03476669154262864,0.00046296272424122345,0.7762818449167277,0.18848850081640242
793,0.0142477911267365,0.10776422137573796,0.8680402920294962,0.00994769546802938
794,0.07327346390575808,0.003549585302757562,0.568245471079245,0.3549314797122395
795,0.37681367193186044,0.008986622291900465,0.5792045111276121,0.03499519464862701
796,0.0004782797229046286,0.8930126423725004,0.10589945067923344,0.0006096272253614881
797,0.0282920788407631,0.016173786771338593,0.9177713527919714,0.03776278159592682
798,6.7825204733582e-05,0.92995817891468,0.06984494350739374,0.00012905237319269425
799,0.0003382953851662448,0.9908582744775365,0.008797034341442442,6.395795855028312e-06
800,0.00037212659494999234,0.9470582164304269,0.05240863152613846,0.00016102544848494062
801,0.8976890833829861,0.0005716064965507166,0.0669304104216402,0.03480889969882307
802,0.012558928990036222,3.160648234972473e-06,0.01204990167923271,0.9753880086824961
803,0.8569068462916082,6.859051897215296e-05,0.05464737515248532,0.0883771880369344
804,0.0636030271891476,1.7976302577414884e-08,0.00010038433745471687,0.9362965704970951
805,0.02352415158300337,0.00713996295727924,0.9198984441102022,0.04943744134951511
806,0.22076702014482188,0.7326330503056812,0.04584886768678509,0.0007510618627118919
807,9.483718267285456e-05,0.9185138595107208,0.08119703160431188,0.00019427170229451528
808,0.11470386187436941,3.5046030808649515e-06,0.13591489057653752,0.7493777429460122
809,0.9876104657912236,0.00019356074025490643,0.009626931212277853,0.0025690422562437798
810,0.39872268734825755,5.315079428161568e-06,0.008704799246980217,0.5925671983253341
811,0.00012326089679739045,0.9856509285633239,0.014218926728068754,6.883811810114727e-06
812,0.004488999085307453,0.9168301083530187,0.07822470736716763,0.0004561851945062958
813,0.9197547817081849,0.0009185777101209283,0.07003092570934297,0.009295714872350973
814,0.8111621266649567,4.958208315376385e-07,9.587519584262042e-06,0.18882778999462754
815,0.0009604613679780252,0.9564216708399486,0.042351277549636315,0.0002665902424369408
816,0.14209427383479473,4.298860215466493e-08,1.0829224606662946e-05,0.8578948539519966
817,0.904925729817228,0.01064345607337006,0.08314925490625175,0.0012815592031501263
818,0.043796240570537964,6.087151148835995e-06,0.022658931148149798,0.9335387411301633
819,0.06033918501459261,0.00034407940554768426,0.16484955859268322,0.7744671769871765
820,0.0009798900322664178,0.9322064944144087,0.06664256993866993,0.00017104561465479333
821,0.07989177349677434,0.05549975962825321,0.85829514558381,0.00631332129116254
822,0.0001250924418941541,0.9864500455424765,0.013415717731772237,9.144283857108616e-06
823,2.7503903437547718e-05,0.9872835402469713,0.01268470850379599,4.247345794976604e-06
824,0.004549667241948886,0.5600526387318515,0.43325702319626497,0.00214067082993466
825,0.0001726537413734173,0.9265580570988092,0.07312540933502207,0.00014387982479527176
826,0.06823329729417242,0.00014596694589651032,0.6178087574360847,0.3138119783238464
827,0.053694415860945775,2.393407865002658e-05,0.3097156412444506,0.6365660088159536
828,0.019112916882091418,0.20187608941918983,0.7700373672431458,0.00897362645557294
829,0.009161552588816426,0.03938832279535516,0.9221523076436604,0.029297816972168038
830,0.0014873182743597416,0.9229652959171115,0.07448926812004493,0.0010581176884837554
831,0.009815832392549632,0.4400285774493205,0.5484581249801883,0.0016974651779415161
832,0.9072143732654109,0.000542255619653673,0.05942373046023467,0.03281964065470072
833,5.8961727177008916e-05,0.8579355693705284,0.1417684831162297,0.000236985786064933
834,0.7594451167089954,0.0013575134983258089,0.024841298355328962,0.21435607143734983
835,0.2238842523486037,0.005782117284758984,0.7222813343080018,0.04805229605863564
836,0.058749543094067706,0.0006917595859420128,0.8646442474828658,0.07591444983712455
837,0.47972572777333833,0.014941711453468091,0.18606425483755654,0.319268305935637
838,0.01925963642614563,0.04127816365456517,0.9028475104288286,0.03661468949046063
839,0.0004919142962935374,0.9503748806602914,0.04905953915427826,7.366588913663379e-05
840,0.33013379253311403,0.00027076928838965555,0.000274793014764432,0.6693206451637319
841,0.7780065579667742,0.0005946802526617434,0.06980394262290088,0.1515948191576632
842,0.7130138026956993,0.00723446426912427,0.22228567933429297,0.05746605370088361
843,0.6879268377533679,1.295502458954897e-07,9.480160516323065e-05,0.31197823109122297
844,0.01346396978264976,9.00881851422555e-06,0.0683827012012565,0.9181443201975796
845,0.018483336605278088,7.319413862819311e-06,0.04864878407088946,0.9328605599099696
846,2.921289718482249e-05,0.9849019590453825,0.015057354010338218,1.1474047094605534e-05
847,0.016036775820373106,0.8981241414013291,0.08557127899888287,0.0002678037794149512
848,0.4935327902761678,1.3685669672630931e-07,0.0034817088840891513,0.5029853639830463
849,0.21847331378412083,1.1833265648515075e-08,0.0006242479259149494,0.7809024264566985
850,0.953981170334245,0.0011833557749072428,0.024303935478595978,0.0205315384122517
851,0.005731711789054811,0.9805333654880992,0.013641112906973188,9.380981587278304e-05
852,0.11114583028809691,0.00012784058751209547,0.021489424608444302,0.8672369045159468
853,0.0003334027851368309,0.8188500506217677,0.18064397956100212,0.00017256703209342657
854,0.006681678657189394,0.013996700465593303,0.9179206834728671,0.06140093740435029
855,0.9425773071451758,0.0008543343655012984,0.01889476676546017,0.03767359172386277
856,0.0006982426059110691,0.9309055172058084,0.06819543566484261,0.00020080452343777168
857,0.9631774157197079,2.3347794503944752e-07,9.159521158059643e-05,0.036730755590766294
858,0.0009995181968450047,0.8880333716521065,0.11069807164481191,0.00026903850623661755
859,0.7500310932021181,4.664597006919825e-06,0.006448296566987346,0.2435159456338875
860,0.093159362497262,6.073666427799549e-05,0.375316396165501,0.5314635046729589
861,0.053813042657986886,0.003887278631191707,0.8653878569348327,0.0769118217759888
862,0.00077157573352535,0.8994200835066587,0.0995747423410687,0.0002335984187473338
863,0.13906735673238924,0.00011634675454319614,0.6063314646641299,0.25448483184893766
864,0.3398140344110682,4.071417258125083e-08,9.953374368679572e-06,0.6601759715003905
865,0.5106678182080773,0.48497081538617626,0.0043594073228007246,1.959082945692662e-06
866,0.07733632436534706,7.44616964179283e-06,0.1711134404941736,0.7515427889708375
867,0.3076805677367493,2.165409607325549e-06,0.05478184174932289,0.6375354251043205
868,0.5189286827874021,1.189917716954099e-06,0.0006253376624503944,0.48044478963243054
869,0.0001343683561554423,0.9996629687838452,0.0002026348388696696,2.802112975344008e-08
870,0.15169415429966185,0.002973836986042375,0.7061487330993789,0.13918327561491692
871,0.0003283542552805817,0.8590042878961255,0.14025544160319078,0.0004119162454030535
872,0.11762199351951413,1.4569448689481718e-05,0.3755182759855381,0.5068451610462583
873,0.0011656895791315822,0.8297527103872984,0.16855524094690003,0.0005263590866700258
874,0.01960255228440569,0.01053826510426202,0.8768063179980707,0.09305286461326151
875,0.4939416215647505,0.0028862721934186197,0.0015192786641230855,0.5016528275777077
876,0.6490469427494119,0.0224813362007798,0.27004445098221724,0.058427270067591165
877,0.004115585795877056,0.974883329432233,0.020895419006046648,0.000105665765843416
878,0.09446999454706205,0.006847414349973312,0.8126979724349328,0.08598461866803188
879,0.07115659779995771,0.0011266447160098987,0.002800737792327044,0.9249160196917054
880,0.5650627013836752,7.40496836825751e-07,0.0024640551197856794,0.43247250299970247
881,0.0008729748510126457,0.9698719710075462,0.029220353477933017,3.470066350806451e-05
882,0.0001883226093289613,0.9419323086719811,0.057750219007370374,0.00012914971131953388
883,0.03746408806580333,0.0003321699382859551,0.0428646510118045,0.9193390909841063
884,0.02209868092510229,3.972692171534608e-06,0.023022112305210073,0.954875234077516
885,0.0051454179204753515,0.8881426826475437,0.1062875808119482,0.0004243186200326303
886,0.009376503498772448,7.146893502834877e-09,0.0019789997827758103,0.9886444895715583
887,0.000887188970104537,0.9452158307522095,0.0535543081223618,0.00034267215532416014
888,6.357296575313406e-05,0.959648666714553,0.04021676835015597,7.099196953795793e-05
889,0.030224366894505576,8.003035770843064e-06,0.05560995423594057,0.914157675833783
890,0.00428822056666321,0.2706769409237999,0.7176246062748053,0.007410232234731573
891,0.9218738366987416,6.240824592679263e-05,0.026329458495840407,0.05173429655949124
892,0.005745318744909482,0.89324859359234,0.10060174980506022,0.0004043378576902847
893,0.0036751254854535133,1.9096834054340473e-07,0.0013704446382083785,0.9949542389079976
894,0.008469052698923467,0.0016151468995898722,0.8089263039425054,0.18098949645898119
895,0.006007797268346614,0.019172020455865243,0.9518838204809194,0.02293636179486887
896,0.03399577397987195,0.00014690614024849262,0.5004846397422472,0.4653726801376323
897,0.2261813179677641,1.611706508373779e-08,1.30259532021178e-06,0.7738173633198507
898,0.19008733758911253,1.957190074865599e-05,0.14600340708782827,0.6638896834223105
899,0.00017315068805235802,0.9758683168704301,0.02391740956757651,4.1122873940927354e-05
900,0.013182178619450603,6.133366430062283e-06,0.006064862430579821,0.9807468255835394
901,0.009866727011028508,0.2577809152169562,0.7276528135581587,0.004699544213856673
902,0.9712002276931069,0.00029207917565184885,0.02241774689711826,0.006089946234122941
903,7.164829897425661e-05,0.9778052295573083,0.02208494680588247,3.817533783489003e-05
904,0.7444328736457877,0.020008276523615632,0.2076547963624799,0.02790405346811694
905,0.00035671918312097295,0.9088935688852794,0.09038923095203207,0.00036048097956747
906,0.0483314468079343,2.6773911603520077e-05,0.03431650334921702,0.9173252759312451
907,0.0065628597978595665,0.9741231177525813,0.019262830267553398,5.119218200561226e-05
908,0.8430212935824156,1.1269903308597683e-05,0.005052375758101753,0.15191506075617406
909,0.4917548789404793,8.188928458849946e-05,0.05321452469272056,0.45494870708221147
910,2.5037186813948904e-05,0.9784054264444387,0.02155602837811136,1.3507990635843767e-05
911,0.909102285722432,0.0015379764158927076,0.08199484384222204,0.007364894019453382
912,0.00016849115360281764,0.9850937113135283,0.014724312852939667,1.3484679929269102e-05
913,0.0012919410768403854,0.9342118675029493,0.06388686434153687,0.0006093270786735753
914,0.015084044751780596,1.0735345591693893e-05,0.17480971872415194,0.8100955011784757
915,0.0005117091931220471,0.9801380965495609,0.01932482249932597,2.537175799122734e-05
916,0.7037665550573641,0.0023120975428600095,0.24203962295482345,0.05188172444495245
917,0.620783872640123,1.0701405393022212e-08,9.947135404832204e-07,0.3792151219449312
918,0.0160432174448128,7.45368395377508e-09,1.0636098898757515e-05,0.9839461390026044
919,0.07615774769906859,0.9223450301055154,0.001492802708021074,4.419487395018027e-06
920,0.2549008319329458,4.725818855957196e-05,0.1849361117115654,0.5601157981669292
921,0.1876636056354468,8.92550570886412e-07,1.5750884566502985e-06,0.8123339267255256
922,0.006735155910908644,1.4567468695995051e-05,0.005185506107303029,0.9880647705130923
923,0.0047494929610639265,0.8858987992020242,0.10899089263440612,0.0003608152025056447
924,0.006264351732225266,0.8728978585769004,0.1201104088245601,0.0007273808663142317
925,0.0002959468051087133,0.9722830043564286,0.02734755770666197,7.349113180093878e-05
926,0.6156636157016927,0.005510976697115481,0.3328652353223587,0.04596017227883319
927,7.270637145799815e-06,0.9970288869325099,0.002961271527069358,2.5709032748229133e-06
928,0.020489079264778227,0.0012062983184270215,0.7844708741351649,0.19383374828162991
929,0.8811701368605142,0.000696490800876928,0.07485475068654734,0.043278621652061804
930,0.002790880998603854,3.105121243386327e-08,6.0322107563272135e-05,0.9971487658426205
931,0.008044353949775969,1.6721510743596997e-05,0.04839157103489471,0.9435473535045856
932,0.6871315376995679,5.342343691505977e-08,0.00044183145291978924,0.31242657742407537
933,0.056678294190650604,1.6461266139168094e-05,0.18207327462403206,0.7612319699191783
934,0.43828587330751595,3.619550557303972e-06,0.023239378057453904,0.5384711290844729
935,0.029882296236862713,0.005086181839685734,0.8013096639662302,0.16372185795722144
936,0.6704150998861492,1.0383490155937286e-05,0.021289836180133016,0.308284680443562
937,0.0007924053635786814,0.8786792745053397,0.11987256768191312,0.0006557524491686759
938,0.019616363106908414,2.459560662412082e-07,0.010503074904462296,0.9698803160325631
939,0.17257135322756167,6.72209036065853e-05,0.31201716903840765,0.5153442568304242
940,0.009012530866478014,0.8922305162576107,0.09805551919479048,0.0007014336811209335
941,0.41992470832349266,9.389488562632899e-05,0.03555484881390582,0.5444265479769752
942,0.025126037786297822,0.0034743303449130147,0.8334904528859791,0.13790917898280994
943,0.9228491345417446,0.00040638832406543826,0.054721906050455446,0.022022571083734618
944,0.04229171824507319,6.3107333427129164e-09,1.2147451524704622e-07,0.9577081539696782
945,0.06526795246624459,0.014274020504257013,0.8128986564817944,0.10755937054770391
946,0.0018654568634789035,0.769424730561178,0.2274117056558104,0.0012981069195327688
947,3.033863167811628e-05,0.9850829815923091,0.014865319336298626,2.1360439713999243e-05
948,0.05882376044433741,1.4202473074364832e-05,0.20039979123508078,0.7407622458475075
949,0.00035248489777251873,0.9219768649541389,0.07746357598842858,0.00020707415965996406
950,0.46813751988244046,0.0002186034622711068,0.01798632803066764,0.5136575486246209
951,0.0005144496699396476,0.984997993546267,0.01443382915766509,5.372762612802318e-05
952,0.0007608733612077676,0.8077701613588716,0.1906894149540455,0.0007795503258751985
953,0.0001812259532768132,0.8922768471687402,0.10734395749850512,0.00019796937947796645
954,0.06326978204638264,0.018358971806168075,0.8486687277154689,0.06970251843198047
955,0.07823076551509942,1.8391950083830637e-05,0.24550294257864388,0.676247899956173
956,0.010036766448160355,8.18459470459799e-08,0.004290355383706965,0.9856727963221855
957,0.004714123152372046,0.978866635828998,0.016381665903439202,3.7575115190779656e-05
958,0.014355515604307442,0.00810790347838452,0.8991482969943084,0.07838828392299968
959,0.8954190931266457,0.006426689146302958,0.09107821818413728,0.007075999542914016
960,0.039175008756447735,0.00013560981102152584,0.5880648688133683,0.37262451261916246
961,0.7758656055096032,0.014453791608997936,0.19719317193864033,0.012487430942758669
962,0.058736791342518704,6.524597366291135e-06,0.21287676580999124,0.7283799182501238
963,0.9232409444317565,0.0023370649330876543,0.07144969394227815,0.0029722966928774916
964,0.00015439135545965816,0.9367697143088742,0.06295731353813303,0.00011858079753312043
965,0.4457851790148588,2.8663792097546337e-08,4.9271278296107896e-08,0.5542147430500708
966,0.016597965340953754,4.3996283344701065e-06,0.022641715371471666,0.9607559196592401
967,0.015207011320012691,0.020863752967712746,0.9179860092680966,0.04594322644417798
968,0.021244229814370883,0.8149201349235767,0.16082542030105287,0.003010214960999681
969,0.000356405413214527,0.8652665346041275,0.13418247526167723,0.00019458472098062354
970,0.288007962431554,8.11868670148209e-05,0.008676084905792188,0.703234765795639
971,0.09866483048849997,2.3304106815539682e-08,0.015580202339661722,0.8857549438677315
972,0.0003793809501906867,0.9351942270350004,0.0642839067236366,0.00014248529117254344
973,0.048854833600920355,1.3120918411861986e-05,0.22852253102641554,0.7226095144542523
974,0.026214686366488417,2.2017559677016282e-07,0.00011744483370005797,0.9736676486242148
975,0.0001459416694213469,0.9568646181300069,0.042901965674148765,8.747452642293898e-05
976,0.6961784835090465,0.00023471767852118773,0.02048784387773697,0.2830989549346953
977,0.009291056396896839,0.028091467626583173,0.9216718629440951,0.040945613032424756
978,0.754040739167858,2.0478236210376714e-05,0.008440354630660622,0.23749842796527104
979,0.012986439946328554,0.023352703483431773,0.9322634285541371,0.031397428016102465
980,0.05323760545057577,0.8788200228865618,0.0674591297497585,0.00048324191310381866
981,0.37367002396004056,0.5868854370397899,0.03932900175831838,0.0001155372418511405
982,6.277264892326391e-05,0.9932861346694453,0.00663710741327765,1.3985268353804948e-05
983,0.5172989249541876,1.7577183528023648e-08,0.00013869543351760009,0.4825623620351114
984,0.00046709901763529536,0.9154401552372244,0.08391479268130386,0.000177953063836433
985,0.00010219131629813587,0.932885122273136,0.06694350988915541,6.917652141064028e-05
986,0.002445109422898318,0.8655856862459904,0.131168356306395,0.0008008480247161621
987,0.25037813972454326,0.04020302249761385,0.6991528188360129,0.010266018941830003
988,0.9273920057340658,3.286188998097083e-08,0.00020585215495896235,0.07240210924908541
989,0.00012472383974767722,0.941435529590387,0.058175776005716676,0.0002639705641486494
990,2.8700302965187663e-05,0.9799243615505957,0.020031020891507517,1.5917254931379175e-05
991,0.06207890937215176,1.0894856822494673e-05,0.09745146436234328,0.8404587314086824
992,5.615260616421361e-05,0.9572334791163469,0.042600305749009644,0.00011006252847915039
993,9.475447379966222e-05,0.9956885385056854,0.004204881614400178,1.1825406114922406e-05
994,0.0013754249036418951,0.9061780253119311,0.09218379612345805,0.00026275366096892045
995,0.31376633537784504,0.10142610656068797,0.5720792707102156,0.012728287351251444
996,0.0652504523003816,9.283933641652807e-06,0.047304769381556235,0.8874354943844206
997,3.404313437020885e-05,0.96993921047253,0.029999033135305764,2.7713257794138298e-05
998,0.00038051302515091853,0.9025234224995422,0.09689795382264565,0.000198110652661339
999,0.23868546868703278,0.7588532462215634,0.0024371304825057108,2.4154608898126994e-05
1000,0.00966997820845018,0.027188963377654616,0.9344341774745708,0.028706880939324487
1001,0.1930737725842604,0.08845707218873668,0.7022197987931453,0.016249356433857786
1002,0.016938900410073246,6.831821739435411e-07,0.011435254012944224,0.9716251623948086
1003,0.6068834084151458,0.0024812757153445594,0.3056222951394371,0.08501302073007257
1004,0.4847853689976271,4.134045537641866e-08,0.0003212314784354753,0.514893358183482
1005,5.159360891735769e-06,0.9986430793233436,0.0013480313115461595,3.730004218603147e-06
1006,4.83225556794251e-05,0.9590906584072155,0.04080230702641071,5.871201069440811e-05
1007,0.00032147490630068275,0.8060606730864093,0.19322909606779914,0.00038875593949097364
1008,0.8857057515281673,9.935875250974417e-05,0.05471751035656589,0.05947737936275712
1009,0.07009667905795774,0.006494215852390211,0.8209716611871284,0.10243744390252378
1010,0.00010147422138223475,0.8466197533405858,0.1529468980920317,0.0003318743460000891
1011,0.9225668656812754,0.005728620309963784,0.06910196264045083,0.002602551368309765
1012,0.1448964733325222,8.102336447610989e-06,0.08464279487075126,0.7704526294602789
1013,0.03013484822688097,1.7868465261720364e-05,0.3057678452938878,0.6640794380139695
1014,0.000810669357314683,0.836504540944651,0.16199319936064246,0.0006915903373918609
1015,0.13492468362478016,8.318385005298858e-05,0.146077585661488,0.7189145468636787
1016,0.9514732486112398,0.013100781890499725,0.03361761830953296,0.001808351188727489
1017,0.0033031012488421384,0.5226214209801142,0.4734316937294944,0.0006437840415491852
1018,1.4092253759952631e-05,0.9927794169785217,0.007203278724411052,3.2120433073974507e-06
1019,0.04324833962700285,6.821109667167312e-06,0.023060783006007123,0.933684056257323
1020,0.04682347938828787,0.05177117931000389,0.871960840758971,0.029444500542737312
1021,0.03253179058811204,0.2281751048807358,0.724177523640818,0.015115580890334109
1022,0.07915064440803486,1.788575310651551e-05,0.16543850127782436,0.7553929685610342
1023,0.002277394890643569,0.8204102161238325,0.17630098223909169,0.001011406746432197
1024,0.7717319761006133,0.00011575254203309092,0.00532512598455101,0.22282714537280257
1025,5.591608345264257e-06,0.997698647647346,0.0022950462552122934,7.144890964973556e-07
1026,0.0004986342517065217,0.9399653745396441,0.05886303461057915,0.0006729565980703499
1027,0.5130063622017267,8.089078703767171e-05,0.175125988972371,0.31178675803886474
1028,0.00012508914302561565,0.9664188130617412,0.03328469033886939,0.00017140745636386965
1029,0.00019360452733209037,0.9592298193527072,0.04051339666706655,6.317945289426392e-05
1030,0.0011338047235274098,0.9312855714483054,0.06737478797814678,0.0002058358500205058
1031,0.01532493765985246,0.4005956765600493,0.5793408493439158,0.004738536436182422
1032,0.035151356048721875,0.9630833884175232,0.001764882880258459,3.72653496463997e-07
1033,0.8572267788714776,0.0436727226734411,0.09702295971510559,0.002077538739975847
1034,0.04729316451747007,0.001575903859361855,0.8113924475097974,0.13973848411337073
1035,0.00035819397143488975,0.9025108193467631,0.09661034553317292,0.0005206411486288698
1036,0.002484378278452241,0.381993010088775,0.6133281146049889,0.0021944970277838027
1037,0.8398323817929148,2.60731427613113e-08,8.972802192820466e-05,0.16007786411201422
1038,0.03567006813902164,0.023714140785718506,0.09413821119730306,0.8464775798779567
1039,0.0008094324760540394,0.9656653574460345,0.03344645977533311,7.87503025782019e-05
1040,0.5602972068569078,1.662339322812125e-06,0.007751465285335114,0.43194966551843433
1041,0.009344565392830694,0.036084607664834956,0.924923892817727,0.02964693412460722
1042,0.0001544527172901747,0.8865545242836973,0.11214749918139137,0.0011435238176211965
1043,0.652452147142204,0.0008965608088684946,0.261216568024397,0.08543472402453045
1044,0.8670529201538961,1.509510642649854e-08,8.551553554050151e-05,0.13286154921545684
1045,0.07600276828736141,0.00012837529319401566,0.5188354849046123,0.4050333715148324
1046,0.12260696580756432,4.27571854080269e-09,0.002819287717473258,0.8745737421992438
1047,0.003135235855077729,0.39904243090655944,0.5948713292352538,0.0029510040031091697
1048,0.039790470043593255,0.0007224635536127817,0.7595553643937616,0.19993170200903224
1049,0.39292908319951303,0.0879561412782912,0.0636077466700306,0.4555070288521652
1050,0.011116401718278813,0.09196483139179695,0.8752378105144275,0.021680956375496732
1051,0.8583133205882223,0.0004049739160578635,0.03905166175544958,0.1022300437402703
1052,0.025095483160038578,0.0007385293016786028,0.7411179144228939,0.23304807311538892
1053,0.0004215160730875826,0.988662418118906,0.010876553291250169,3.9512516756237726e-05
1054,0.8317096871563427,0.0016103547019481516,0.14827526314494446,0.018404694996764556
1055,0.19365533328367118,0.7943523395824554,0.011982281301306132,1.0045832567367937e-05
1056,0.012847085511373956,1.7791005665173857e-08,8.940453767239232e-07,0.9871520026522437
1057,0.14027291114001475,1.4551501027235947e-08,3.3276589081336416e-05,0.8596937977194028
1058,0.015797554152967876,0.010643879033040766,0.9007522754488926,0.07280629136509865
1059,4.785592693070363e-05,0.9695545271785393,0.03034134715338251,5.626974114748573e-05
1060,0.651951559854982,0.003681607140548827,0.11198165835446004,0.2323851746500093
1061,0.0017207266126399773,0.988205316791214,0.010043916258305393,3.0040337840584098e-05
1062,0.7336754440857685,7.850481771727918e-08,0.0034681786081126077,0.2628562988013013
1063,0.0023978646344880138,0.8871157785518077,0.10981284199534319,0.0006735148183611466
1064,0.005540535058252809,4.405723257512165e-09,6.886086519740513e-06,0.9944525744495043
1065,0.37906512704738626,0.2813324131018375,0.33457593178169254,0.00502652806908367
1066,0.8160533076124066,6.367838156438447e-08,0.0003724033021229729,0.1835742254070889
1067,0.13006774894518056,0.0009337019749539559,0.08307782258259777,0.7859207264972676
1068,0.0009511488693239375,0.8491452016212071,0.14942223424731485,0.00048141526215401747
1069,0.5575856788516121,6.4404975094531225e-09,1.7554380819612798e-06,0.4424125592698083
1070,0.050978512973524695,5.92769726027016e-06,0.14615870896034863,0.8028568503688664
1071,0.04596143543602804,0.000938672880818811,0.8226296838264869,0.13047020785666627
1072,0.41675696182365135,5.896205425432302e-05,0.00429655796577039,0.5788875181563239
1073,0.07237067263391184,0.00036688042103991635,0.6009123993051516,0.32635004763989667
1074,0.0007725869389097707,0.9710643202435397,0.02812121631202866,4.187650552197741e-05
1075,0.01048592961957918,3.636728408807162e-05,0.0023815041042875625,0.9870961989920453
1076,0.47947038014065363,2.8279302252438382e-08,0.002431495070144309,0.5180980965098998
1077,0.0012331231516669338,0.9716084042146551,0.027148925972170605,9.546661507415605e-06
1078,0.04988273970402391,6.027014622304282e-06,0.17066380460128577,0.7794474286800679
1079,0.0017145403883512176,0.8515573118491383,0.14574425378495334,0.0009838939775570204
1080,0.831258151760947,7.146182875642931e-07,0.0015121109898510693,0.16722902263091433
1081,0.49349202546749654,2.725035826573866e-08,0.00010305697574827743,0.5064048903063969
1082,0.0003842552001084858,0.8209143317249706,0.17834966741232797,0.00035174566259288197
1083,0.000377443724455818,0.8985754977434419,0.10093794497529186,0.00010911355681047189
1084,0.832268985511268,2.99460196526093e-06,0.008823650453099212,0.1589043694336675
1085,0.16720776016380784,2.3766392748946646e-08,3.503776256164753e-06,0.8327887122935433
1086,0.9839320301005553,3.4577993308564795e-06,0.0003513691133909533,0.01571314298672278
1087,0.03770688035417576,1.6938842068929234e-09,0.0002724775610571847,0.9620206403908829
1088,0.2885966479171624,1.5981666205912578e-05,0.052878742046768644,0.6585086283698631
1089,0.0006079482748780197,0.7434867062199705,0.2534979098835741,0.002407435621577299
1090,0.027817979224938148,4.505597880867266e-08,0.004984820439865301,0.9671971552792177
1091,0.7807918270023159,7.221125790167655e-05,0.00858366729827318,0.21055229444150939
1092,0.04691004882745728,0.8392189919401261,0.11374785132637293,0.00012310790604379895
1093,0.015086670003856698,0.020447030990243045,0.9076151738005651,0.05685112520533506
1094,0.12293742737588077,8.285589106003201e-06,0.00030809446687413947,0.8767461925681391
1095,0.13376811163923452,0.011531623357037508,0.8082565613970638,0.04644370360666408
1096,0.0009402028129584554,0.5995841287701107,0.3977900639394616,0.0016856044774693846
1097,0.023104466857896116,2.9525959929552064e-06,0.05642033143540202,0.9204722491107088
1098,0.0005052761660576573,0.9109188542794674,0.08826591351577937,0.00030995603869566013
1099,0.7478865969536543,3.3402133381873172e-06,0.010910451813450928,0.24119961101955661
1100,0.0005171496664686164,0.8597837111364238,0.13934197057969266,0.0003571686174151077
1101,0.030429717168215308,3.985706610346752e-07,0.039187360094231447,0.9303825241668923
1102,0.032243554458024175,0.02946182371019005,0.9106958412354682,0.02759878059631757
1103,0.36505560749143257,1.3726287565670245e-07,1.6225148275643508e-05,0.6349280300974162
1104,0.08567813955731328,0.15942869829741688,0.7338139117309279,0.021079250414341943
1105,0.023439742039561014,0.003263116941548646,0.863333562230835,0.1099635787880553
1106,0.7595526133231639,0.00770159725455823,0.15817935627352914,0.07456643314874871
1107,0.051018427799833836,3.9434730984609156e-05,0.14037832650292514,0.8085638109662564
1108,0.04178200651104394,0.012117891268263141,0.9070238383418557,0.03907626387883719
1109,0.8163063792756091,0.002152732256046534,0.16488817821921797,0.016652710249126342
1110,0.8633722937066484,0.0012110189518783464,0.11821625795557959,0.01720042938589357
1111,0.005659414388217118,1.3176545421632933e-06,9.166232670700767e-05,0.9942476056305337
1112,0.8688223914455339,7.846591569489855e-09,5.390374907442901e-05,0.13112369695880027
1113,0.6379772247432572,9.236365571944368e-08,2.9842248115395837e-05,0.36199284064497156
1114,0.007061088140944859,0.5564534781671334,0.4327479403015384,0.0037374933903834566
1115,0.00012577428593093498,0.9933605678207719,0.00650769845975337,5.9594335438828365e-06
1116,0.056083782203762256,1.545712888319538e-06,3.374234726516369e-05,0.9438809297360842
1117,0.008134710015661463,0.9008347147457539,0.09029957990371205,0.000730995334872669
1118,8.59874867250068e-05,0.9922266692682522,0.007671123549428185,1.6219695594792424e-05
1119,0.9764234236594032,0.017278767316225775,0.006264104873513506,3.3704150857562805e-05
1120,0.06340116874060053,3.892962496721976e-06,0.06542444348159593,0.8711704948153067
1121,9.498491451427266e-05,0.9468640990221818,0.05281474005036346,0.00022617601294036956
1122,7.419694404185335e-05,0.992461332874835,0.0074534084537045955,1.106172741844149e-05
1123,0.022631470141769725,0.9298586568253356,0.047313053317650455,0.00019681971524415783
1124,5.187071683490389e-05,0.9661534978005762,0.03375841244597784,3.6219036611082343e-05
1125,0.026892066026449356,5.0057352248438675e-05,0.2768328542988862,0.696225022322416
1126,0.0005399360232920744,0.9313925308951188,0.06789296689312198,0.00017456618846703134
1127,0.0001054307574718416,0.99798963565412,0.0019042632384466877,6.703499614083146e-07
1128,0.00034518549627901405,0.75304108881234,0.24584713977904732,0.0007665859123337888
1129,0.00015272991191308042,0.8656241228161499,0.13400271261874827,0.00022043465318856935
1130,0.0006064784738214665,0.7737384842371904,0.224757129467916,0.0008979078210721481
1131,0.11552815863580891,1.313666530472886e-07,2.2807126435506566e-05,0.8844489028711024
1132,0.19872068298985374,0.0024425440317194357,0.6381225023094074,0.1607142706690194
1133,0.13961073046662206,0.0005012544081879484,0.5772816319720672,0.2826063831531227
1134,0.001676398848964183,0.9228405377675527,0.07470017094749339,0.0007828924359897916
1135,0.025564728798766152,0.6564092739502602,0.3166707392305776,0.0013552580203961494
1136,0.009742339346847415,0.7767238602703296,0.21144006828725756,0.0020937320955655564
1137,0.00038273233135832874,0.9996169400179609,3.276310641966873e-07,1.9616671183563837e-11
1138,0.01862601669086542,0.029082884503366067,0.9262244333124252,0.026066665493343404
1139,0.6695267989720537,0.00013055382157398088,0.1632768643427837,0.1670657828635886
1140,0.00359782675797203,6.581787711391134e-05,0.3521774677254845,0.6441588876394296
1141,0.87025125403711,8.503215656523018e-06,0.006341751622752958,0.12339849112448067
1142,0.051994930291379464,0.003082956631340827,0.8386806984660069,0.1062414146112729
1143,0.8985011552613972,2.9867682186841024e-05,0.0012458492776385199,0.10022312777877761
1144,0.0026357489474315467,0.16800481199439446,0.8196586122828471,0.009700826775326814
1145,0.002320521140673333,0.4011824818085539,0.5903530275340727,0.0061439695167001445
1146,0.0030150210235305166,0.013924964643365532,0.9588093747569769,0.024250639576127015
1147,0.28423325156421,2.06444753113698e-08,0.00035297786766392566,0.7154137499236508
1148,0.02057637084543403,1.1123246471300988e-06,0.021037938760779536,0.9583845780691392
1149,0.00035383238742969737,0.9676710875443387,0.03188037080797812,9.470926025350052e-05
1150,0.45526675570284825,6.705901754803193e-08,6.756202980236312e-06,0.544726421035154
1151,0.6538463124466796,7.411923457703199e-08,0.00011138095696998842,0.3460422324771158
1152,0.8007590764758865,2.971414811030216e-05,0.04757268459910596,0.15163852477689715
1153,0.04628822171966591,0.004471109058339355,0.8746963786890932,0.07454429053290162
1154,2.840729905888229e-06,0.9982837718419653,0.0017099447966456146,3.442631483377946e-06
1155,0.00010397444243241966,0.9624056152601723,0.03738089305834143,0.0001095172390537256
1156,0.9476373459583428,0.012443808310749907,0.039286149288626955,0.0006326964422802165
1157,0.08925171535945087,5.160587237831282e-05,0.349903825959425,0.5607928528087458
1158,0.00012446000388251257,0.9724382002786456,0.027369058619112333,6.828109835932775e-05
1159,0.09507134365760055,2.1643299532636783e-06,0.11904640475232549,0.7858800872601206
1160,0.07959182910167427,5.521528629509478e-09,0.00014993303059149455,0.9202582323462055
1161,0.0003405896244906146,0.9992421578898109,0.0004171801381831384,7.23475154527583e-08
1162,0.00018060248129001593,0.907381444026432,0.09206381869056969,0.0003741348017083887
1163,0.24323798640623068,0.7133689951280541,0.04335051234259512,4.2506123120268025e-05
1164,0.0012109423641290657,0.9215876315193005,0.076655086124993,0.0005463399915774174
1165,3.444787329823547e-07,0.9997270719493815,0.0002725485706706114,3.5001214894883584e-08
1166,0.012157622124317582,0.04183593761139516,0.8946699628622041,0.05133647740208333
1167,0.0009493268460738538,0.9503596982514401,0.04847803162970224,0.00021294327278394322
1168,0.8849821225344655,1.5958579473075354e-05,0.008498908258629088,0.10650301062743252
1169,0.0807352634743126,6.139800287329344e-05,0.18376245475498448,0.7354408837678296
1170,0.7633953812517977,2.177435580728397e-05,0.06785301077551056,0.1687298336168845
1171,0.4230175005040851,1.352988062753895e-05,1.7240225020081243e-05,0.5769517293902673
1172,0.04204901662487755,3.757465457265703e-07,0.0005818485194484206,0.9573687591091284
1173,0.9483434872938966,0.006243333655908241,0.044237984207830476,0.0011751948423645772
1174,0.7353377939305376,8.066472504325728e-07,0.00042319582259359823,0.2642382035996184
1175,0.06510748350003256,0.35957953119216174,0.5733818458129186,0.0019311394948870926
1176,0.005286777824997769,0.8919921646142711,0.10258621693120697,0.00013484062952425174
1177,0.8544594456737771,1.349988475377582e-06,0.0034198673292597298,0.14211933700848786
1178,0.0272538741599475,2.4545378428667956e-08,0.0008551017231998734,0.9718909995714742
1179,0.05091669742922965,2.3954877067955285e-08,0.01014878562634858,0.9389344929895446
1180,0.6301449349661801,0.016564888064602042,0.33405737433983784,0.019232802629380118
1181,0.7812216173459327,0.004378875889011317,0.20572189438626812,0.008677612378787806
1182,0.045820915591776736,0.007971056446604155,0.8811640169084035,0.06504401105321571
1183,0.15026967854430687,3.063215361742705e-05,0.3545334842734429,0.49516620502863273
1184,0.24364620557792943,0.00022223112334239886,0.07733883113527597,0.6787927321634522
1185,0.8131282973868554,0.000894087956496942,0.15987141799282148,0.02610619666382604
1186,0.006824407915447851,0.9916660586218337,0.0015093822791687403,1.5118354956669584e-07
1187,0.10449757179479136,0.21894880089050398,0.6703200951066197,0.006233532208084776
1188,0.00040985196245179315,0.9494304962876758,0.05012213965435578,3.751209551643396e-05
1189,1.752843727894162e-05,0.9994341053887468,0.0005482941859840514,7.198799038420207e-08
1190,0.9721105032405026,9.78315875075518e-06,0.0003900948061250016,0.02748961879462158
1191,0.00025287562214835476,0.9761262743083354,0.023599967315831877,2.0882753684281473e-05
1192,0.021536123207187133,0.12096715926078257,0.848518054190557,0.008978663341473384
1193,0.0032272367315226277,0.3795925766659429,0.6134831158070317,0.0036970707955028327
1194,0.0038135829088638278,0.017263126606725326,0.9558613444124542,0.023061946071956645
1195,0.00021178666155853288,0.9753126521473429,0.024435453876330865,4.010731476755379e-05
1196,0.07143443868561661,7.415684714106068e-05,0.06815963414116216,0.8603317703260801
1197,0.00042469969802570663,0.9532432749480635,0.046271274875326354,6.0750478584544796e-05
1198,0.539988833220781,0.010252860198465942,0.25017713337198494,0.19958117320876817
1199,0.3192345861053993,0.10640462848369579,0.5713182138322085,0.0030425715786963573
1200,0.0022527791131144847,0.9018386288118547,0.09559354179427208,0.0003150502807586547
1201,0.00013413858920407259,0.9361867442613729,0.06354840450384133,0.00013071264558171065
1202,0.0029243000346921245,0.8903377720711153,0.10666204959114216,7.587830305035065e-05
1203,0.00030891433743926536,0.9896617310161743,0.010017149883138997,1.2204763247507026e-05
1204,0.0015983842914752285,0.927086829293406,0.07111277575319788,0.00020201066192087865
1205,0.9258223495164799,0.00031892014319975174,0.0546543552192585,0.01920437512106205
1206,0.05140080603774735,0.0005528372950845737,0.7987569379798763,0.1492894186872918
1207,0.0002495826717103863,0.8209212000933689,0.17761625406671114,0.0012129631682095308
1208,0.5003382710848315,9.587104832184694e-08,9.055645322204666e-05,0.49957107659089817
1209,0.1681300633160467,1.628984074774988e-05,0.3396164791877223,0.49223716765548325
1210,0.9516899532321682,0.004186300712139844,0.03774617492679917,0.006377571128892818
1211,0.9533090962698454,0.00040940449642555413,0.023040595954271183,0.02324090327945797
1212,0.028824448843821862,0.00026812876794966417,0.05753096177764678,0.9133764606105818
1213,0.0005852815405189145,0.9192603988343148,0.0798983527983869,0.0002559668267794679
1214,0.31751409703469674,3.487931838032463e-08,3.805183589812054e-05,0.6824478162500867
1215,0.9278674466694954,0.0002699335099582715,0.06411889817697697,0.007743721643569544
1216,0.012101992983689776,0.07565889122176746,0.8950272978290503,0.017211817965492433
1217,0.43114676271078217,2.72402132313242e-07,0.0003545369680529894,0.5684984279190326
1218,0.1615931456605185,0.004291303059621269,0.7776136907828511,0.056501860497009004
1219,8.897788360085118e-05,0.8362649107492732,0.1631628198232922,0.0004832915438337752
1220,0.2095750434559884,5.46592922410895e-06,0.0614893034804241,0.7289301871343633
1221,0.43775906355009414,3.964959127813918e-09,0.0001954114077604002,0.5620455210771863
1222,0.0425615542564612,0.09027309207729817,0.8511609083922963,0.016004445273944134
1223,5.981993781582819e-05,0.9722810881798751,0.02763917198756808,1.9919894740987654e-05
1224,5.7252360993845825e-05,0.9876470052735531,0.01226831730262214,2.7425062830836497e-05
1225,0.000694491752552597,0.8105350817388797,0.18763385596128196,0.0011365705472859476
1226,0.5756403365438352,3.5172107701208054e-06,0.0033601236718819685,0.42099602257351276
1227,8.631880855170158e-05,0.9959291647449244,0.003972731634233609,1.1784812290310323e-05
1228,0.019844533910085244,9.987226069604404e-05,0.06239513873447117,0.9176604550947476
1229,8.498888238855825e-05,0.8969452654982903,0.10275645371151798,0.00021329190780321623
1230,0.00013189337647500404,0.9339275014372701,0.06579899170252261,0.00014161348373214336
1231,0.005449688371519628,6.370071655019098e-07,0.010498256069583593,0.9840514185517313
1232,0.0002475344747423293,0.9289119595724437,0.07079084129851809,4.966465429610107e-05
1233,0.0002908143933454609,0.8373247952473869,0.16185387814085672,0.000530512218411005
1234,0.004452342025042947,6.584116482236921e-06,0.002475695642790256,0.9930653782156846
1235,0.00029682347783425896,0.8886916553637885,0.11059804520861616,0.0004134759497611432
1236,0.000258753646613136,0.8895445502530869,0.1099862408794038,0.0002104552208960507
1237,0.008104546561133397,0.001055559490520525,0.7724056804287988,0.21843421351954723
1238,0.21730156878111118,0.002597193669951722,0.665369165053469,0.11473207249546824
1239,0.0260192256972187,0.0012267721334815955,0.8405190431292336,0.132234959040066
1240,0.09703421038026536,4.546749722372149e-06,0.02189872931655349,0.8810625135534589
1241,0.11880738247874784,0.00018847223298357695,0.016832591317250022,0.8641715539710186
1242,0.0005705350989449477,0.9457732159500274,0.053521953982371064,0.00013429496865650803
1243,0.08726647462789343,0.22586702575836484,0.6730768557312075,0.013789643882534203
1244,0.3750955578402879,2.450715764893976e-05,0.05998644644427088,0.5648934885577923
1245,0.003459201978486826,0.9756622652697022,0.020805579296516122,7.295345529472185e-05
1246,0.0006503092242496631,0.8335214545159457,0.1650313016980478,0.0007969345617569188
1247,0.9173082306379045,0.0011070709140006878,0.06497453808004551,0.0166101603680494
1248,7.745433854020079e-05,0.9356982385361458,0.06410883797110463,0.00011546915420936127
1249,0.022785810816686725,6.388961560434887e-09,0.003145129917309053,0.9740690528770427
1250,0.7361815114127452,7.54957588638439e-05,0.06942399315462476,0.19431899967376615
1251,0.8035973293946872,0.04134595762946583,0.12481011539104785,0.03024659758479895
1252,0.634971388873826,4.0703247853752374e-08,0.000598667347165004,0.36442990307576123
1253,0.06070031028301293,5.1539261130124396e-05,0.35099787968877105,0.5882502707670859
1254,0.0015626949807262987,0.5926455156282681,0.40426930595495336,0.001522483436052411
1255,0.005284970494071758,0.8715296877727388,0.12161711585883797,0.0015682258743515804
1256,0.005787152654218279,0.9916271142084018,0.002571826097087477,1.3907040292479994e-05
1257,8.214016208250056e-05,0.9661695885905635,0.033665874954796164,8.239629255767202e-05
1258,0.6457803568865285,0.0010533157073612913,0.2900471739918633,0.06311915341424691
1259,0.0758512517624023,1.759344263032493e-07,1.268494274887083e-07,0.9241484454537439
1260,0.03784333124494014,0.016305016284307382,0.9140627709376845,0.03178888153306803
1261,0.004639838207482089,0.9489071298124415,0.04630335935062903,0.0001496726294471835
1262,0.0001592600105199873,0.9903199097867684,0.009506103699012858,1.4726503698826432e-05
1263,0.12221721264670947,5.066934237834383e-05,0.08911662320087944,0.7886154948100328
1264,0.004894270473506185,0.2393913656786537,0.7423118753484829,0.013402488499357382
1265,2.3128228726067145e-05,0.9894725007704136,0.010500458787495308,3.912213365098703e-06
1266,0.061519925527475136,0.006912655034113881,0.8403492950209945,0.09121812441741628
1267,0.7824155444445786,0.0512073365543009,0.16285734560896178,0.003519773392158663
1268,0.004915714016854111,0.5346009190039609,0.457196029988215,0.0032873369909698774
1269,0.00016175305910340917,0.9319957927900541,0.06768942399982249,0.00015303015102003796
1270,0.9271325131231313,0.016586905141899408,0.05231266871201963,0.003967913022949806
1271,0.09145315456677429,1.0662373813794087e-08,0.0023664052760200157,0.9061804294948318
1272,0.004944019606971282,0.9582629305101956,0.0365446799888941,0.0002483698939389112
1273,0.008066091321483072,0.04812932460825218,0.9293019169342602,0.014502667136004533
1274,0.0658386284578429,9.79512531260357e-06,0.0892174299795036,0.8449341464373409
1275,0.2341992404818702,1.4965397748447414e-05,0.003941895380810657,0.7618438987395707
1276,0.05518997354130241,0.12714946781247238,0.8056513060633655,0.012009252582859616
1277,0.0002990347991043609,0.9139183223397198,0.08553149049484388,0.0002511523663319856
1278,0.14344683128272637,0.8216485585466434,0.034569415567259204,0.00033519460337106435
1279,0.03565656129031441,0.908695355281003,0.055499354167636676,0.0001487292610460238
1280,0.8384981744008372,0.00030953703723372075,0.12105129442450523,0.0401409941374239
1281,0.009344741361349239,0.2618482445991572,0.7199494677659836,0.008857546273510068
1282,0.012813560228375844,0.3572996896797845,0.6227581485708981,0.0071286015209416935
1283,0.04539051763585432,2.3228623758323744e-06,0.04541815825516991,0.9091890012465998
1284,0.0794966257953297,2.0605198591464386e-05,0.20843719061694627,0.7120455783891326
1285,0.30343502726484856,2.992199209535522e-07,0.0009459161772841519,0.6956187573379463
1286,0.8139368374873653,0.1721085711180029,0.013849652586261052,0.00010493880837075773
1287,0.011023341527926913,0.15517824116069595,0.8245366089892348,0.00926180832214233
1288,0.9471151370077955,0.0005007765179525694,0.031876798412241725,0.020507288062010052
1289,0.00038636247406956335,0.9227965054917305,0.07656101771856512,0.0002561143156347317
1290,0.5472820738810257,0.001560610159342221,0.1313293526921437,0.3198279632674884
1291,0.00010608499430040813,0.8756181749498299,0.12405223645803273,0.00022350359783692095
1292,0.00016149073327357806,0.9568893785399046,0.04213235463914954,0.0008167760876722094
1293,0.8984788687234512,0.0033325163716510504,0.09687895788672977,0.0013096570181681194
1294,0.5030575437842826,0.36203168894858717,0.13367835973295328,0.001232407534176784
1295,0.9719931228132209,6.417867180599016e-05,0.017821211597450808,0.010121486917522413
1296,0.05068412754402204,0.0031114826965492346,0.8371574150096687,0.10904697474976002
1297,0.22411512111471762,0.07616427406035031,0.6818964171109488,0.017824187713983305
1298,0.0030578689392146276,0.7106031511947835,0.2852166938114935,0.001122286054508353
1299,0.1324138827796335,0.0007126750470752246,0.6966334499236195,0.17023999224967176
1300,0.3286345465489829,0.0020521610496368127,0.5450199005602299,0.12429339184115054
1301,0.1656872919216638,0.31251564535093035,0.5196750996139475,0.0021219631134583167
1302,0.6068200459280626,5.656851968086572e-05,0.020437843960270558,0.372685541591986
1303,0.564075659860581,5.885830453868018e-08,7.355042919330715e-05,0.4358507308519213
1304,0.37232090743823437,1.1857846729243571e-06,0.004096939299071844,0.6235809674780209
1305,6.111106806029417e-05,0.9768152896409793,0.0230886362806835,3.496301027701647e-05
1306,0.03331518941285163,0.009637032741220646,0.05342991058534276,0.9036178672605849
1307,0.9344699593317627,0.0020758472318319434,0.05904922963698468,0.004404963799420774
1308,0.07547911668350436,2.2332845098423518e-05,0.2007512986432762,0.723747251828121
1309,0.015659585564014523,0.03872386259602359,0.918245395235358,0.02737115660460387
1310,0.0073939732996198765,0.9924960310263108,0.00010994198261170111,5.369145746077498e-08
1311,0.00028675043597600584,0.8716835895415275,0.1276096719845727,0.00041998803792358196
1312,0.9079121511469196,0.07597383023464607,0.015989528062167063,0.00012449055626734235
1313,0.06372285472041646,1.3109781203274964e-05,0.05536981011168726,0.8808942253866929
1314,0.00015768966846521482,0.9881423872084293,0.011684854685923209,1.506843718231665e-05
1315,0.019001408629649656,0.2955207126071886,0.6691339586450411,0.016343920118120733
1316,0.000495259764738773,0.9967445915919347,0.002758249603436789,1.8990398897564135e-06
1317,0.000220031415632199,0.9437773632444462,0.05567348531952995,0.00032912002039143563
1318,0.0003446755326385177,0.8867823158813165,0.11252194738012215,0.000351061205922989
1319,0.016920125574757725,0.000692332355918284,0.9351363908947192,0.047251151174604905
1320,0.9597346948296439,4.5057484684363085e-05,0.019070429810603404,0.021149817875068085
1321,0.07343705011497607,1.1701023905297721e-05,0.11176373024934905,0.8147875186117697
1322,0.04165546446400995,1.8276675777290836e-08,0.0013261786898129066,0.9570183385695015
1323,0.34326774377105734,0.009778773616697359,0.6310668198514623,0.015886662760783002
1324,0.0001203858654080772,0.9830239677052176,0.01684741838586296,8.22804351122001e-06
1325,7.503948348455377e-05,0.9410990814112913,0.05869866369128301,0.0001272154139413779
1326,0.07283163739633995,2.7864596634281652e-05,0.35615133498724766,0.5709891630197781
1327,0.00428383487746573,0.6821059482694974,0.3127495410366816,0.000860675816355348
1328,0.002410235419457183,0.027337475158075594,0.9607441297248133,0.00950815969765382
1329,0.0013203925839422254,0.9757447189131232,0.02285389931355169,8.098918938292887e-05
1330,0.0014248315019940038,0.9355848676508106,0.06243495656805162,0.0005553442791437961
1331,0.09188762781940638,0.003747164573190165,0.8234255625236142,0.08093964508378913
1332,0.000593446387934292,0.9984642723716437,0.0009415583702860951,7.228701358757443e-07
1333,1.6119664016619297e-05,0.9818160464125179,0.018151063402323038,1.6770521142777204e-05
1334,0.913458042549654,6.869605046833255e-05,0.045846147789132916,0.040627113610744836
1335,0.0005781544644560716,0.8585884459692643,0.14050153857455944,0.00033186099172015295
1336,0.5667640112130038,0.0016830340481207426,0.39699301687403826,0.034559937864837284
1337,0.051233441496677065,3.9369176996227526e-07,0.000290464252754814,0.9484757005587982
1338,0.050664504272099356,0.0022933085193184858,0.8479968939080849,0.0990452933004973
1339,0.0004064762031792063,0.9761535294938583,0.023409492707157146,3.0501595805339308e-05
1340,0.1549783422861635,7.231589615973877e-05,0.12164130345814553,0.7233080383595312
1341,0.00013344006928119655,0.9766257395408412,0.02316445230476473,7.636808511286735e-05
1342,0.0011363118042853266,0.819619208899837,0.1777255623170828,0.0015189169787949229
1343,0.8423697703740062,4.036271958462265e-05,0.00723739383443954,0.15035247307196964
1344,0.039561811166226944,0.013159569430662231,0.8716795030873257,0.07559911631578523
1345,0.00010614786349835592,0.9922966967252611,0.007432744730434937,0.00016441068080538804
1346,4.283300811117581e-06,0.9986786139780045,0.001317002936812008,9.978437236255955e-08
1347,5.251004657679038e-06,0.9938357684212804,0.006154479801417027,4.500772644788772e-06
1348,0.0015788465881027595,0.9766183935319057,0.021744040437778032,5.8719442213355484e-05
1349,0.0002378609357864335,0.891400588840194,0.10811586980495848,0.00024568041906112463
1350,0.10663142137873573,0.001234529389677973,0.7462102550064009,0.14592379422518534
1351,0.009504317667720063,2.343596669746829e-05,0.11298590584787328,0.8774863405177092
1352,0.04862345193853343,0.16700453466376397,0.7701052317723215,0.014266781625381097
1353,0.0007825643404949174,0.14871121924315484,0.826001623184288,0.024504593232062347
1354,1.9098485205445282e-05,0.9936760393486261,0.00630221663740203,2.6455287662873706e-06
1355,0.00046059166578497706,0.9768992614536004,0.02247690424228287,0.00016324263833179613
1356,0.02702044121172112,0.8163665122770103,0.15608331617170543,0.0005297303395629939
1357,0.9749535338964759,0.008278600148915294,0.016466669978730235,0.00030119597587852304
1358,0.06854631324442009,0.05896229034628749,0.8637668306841866,0.00872456572510595
1359,0.020685661443051204,3.437726620913827e-05,0.0074775238972916575,0.971802437393448
1360,0.02833628127157098,0.01866027451629514,0.9229201511482534,0.030083293063880464
1361,0.0006531224917086296,0.9949829325758394,0.004358331115448285,5.613817003834498e-06
1362,0.0003540754590920653,0.9063289884339726,0.09287517282597119,0.00044176328096412606
1363,0.06811771037171313,4.638891636263389e-08,0.032320714507317716,0.8995615287320528
1364,0.0003837337120213256,0.8776531351752219,0.12180760681236766,0.00015552430038919424
1365,0.0004252924276700921,0.8742819574190518,0.12476253404914005,0.0005302161041381858
1366,0.00023052236176120176,0.9076338377861781,0.09193109910637154,0.00020454074568897776
1367,0.0005535892854848257,0.8539952806410134,0.14495025578234713,0.0005008742911545777
1368,0.992578301538536,0.0011799515206796143,0.005947282808658499,0.0002944641321256609
1369,0.00010656994814620958,0.9238854452450477,0.07593617289163306,7.181191517289493e-05
1370,0.04229196718695621,0.15003103201980336,0.7990297382211755,0.00864726257206506
1371,0.018259728471101112,0.15277017088042286,0.8077994086651101,0.021170691983365856
1372,0.045544742202111674,4.122159466502247e-08,0.002497766010525695,0.951957450565768
