,0,1,2,3
0,0.99949,0.0004048948,9.9131474e-05,5.9359822e-06
1,0.9998714,2.1014739e-07,2.5119673e-06,0.00012590569
2,0.00068609667,8.6483163e-07,0.0018470859,0.99746597
3,0.00054447923,9.646657e-06,1.2479029e-06,0.99944466
4,7.500959e-09,0.99999595,3.9974507e-06,7.3187245e-08
5,8.611925e-06,3.9529477e-06,5.4605665e-05,0.99993277
6,5.6937693e-05,1.4963149e-06,0.9998864,5.5118053e-05
7,7.1763534e-06,6.1114696e-07,3.6316937e-08,0.99999213
8,2.859006e-07,0.9995382,0.00045953892,2.0065968e-06
9,2.2356942e-07,0.9999994,3.689796e-07,2.251548e-08
10,0.9997893,9.070603e-08,0.00019526407,1.5342297e-05
11,0.0049429173,0.9950328,2.0480229e-05,3.767672e-06
12,0.99999666,1.8623237e-07,2.4419962e-06,6.836672e-07
13,0.0017239724,5.8338555e-06,0.0027625982,0.9955076
14,0.00046952773,2.0507454e-05,5.767622e-07,0.99950933
15,0.99904794,0.00068924704,4.5137673e-05,0.00021761941
16,0.9971295,0.00011423862,4.172769e-06,0.0027521006
17,9.5161745e-09,0.99999344,6.2454774e-06,3.3834385e-07
18,4.7482034e-05,7.537971e-07,2.710067e-05,0.99992466
19,7.725711e-06,0.99888414,0.0010878808,2.0202764e-05
20,0.0031088921,2.6759562e-07,0.9965082,0.00038264776
21,0.9955063,0.004485231,2.7078036e-06,5.771873e-06
22,3.3274125e-06,1.3300811e-08,6.1492183e-06,0.99999046
23,0.9998086,2.0519423e-05,1.1193954e-07,0.00017083326
24,1.1465378e-06,2.0861942e-06,1.3313656e-05,0.99998343
25,1.2677264e-08,0.99998164,1.824796e-05,5.277722e-08
26,1.5961567e-07,0.999926,7.34127e-05,4.113824e-07
27,1.857862e-05,4.3102636e-07,0.99994683,3.417203e-05
28,4.8079277e-05,1.0046599e-06,0.9991698,0.0007810899
29,0.9996809,0.0003041662,1.1622478e-05,3.317765e-06
30,8.206777e-06,4.8956914e-05,0.9998666,7.616056e-05
31,1.8781067e-08,0.9995845,0.00041533847,1.1629606e-07
32,1.893111e-08,4.3478044e-06,0.9999943,1.3623414e-06
33,1.6330217e-05,3.2830346e-06,0.99994564,3.4691388e-05
34,2.149615e-06,5.153964e-06,0.9999186,7.41521e-05
35,1.352928e-08,0.9999871,1.2132722e-05,7.2199936e-07
36,1.6895356e-09,0.99999845,1.4798352e-06,4.572655e-08
37,5.7111227e-09,0.99978644,0.00021334998,1.9742403e-07
38,0.9999341,4.699452e-08,2.9905183e-07,6.555282e-05
39,0.99399924,0.00018297565,1.6565821e-06,0.0058160853
40,4.253629e-08,0.99999976,1.5405455e-07,1.2054385e-08
41,1.8545802e-07,0.99997663,2.2352959e-05,8.277211e-07
42,5.5642005e-07,1.72195e-08,0.9999968,2.6558685e-06
43,1.6151075e-10,0.9998115,0.00018835923,2.0006048e-07
44,2.691745e-06,9.080894e-05,0.9998869,1.9659592e-05
45,0.9976962,1.7047435e-07,0.0021790783,0.00012446655
46,0.99993944,4.5832277e-07,1.8520599e-07,5.9964983e-05
47,1.4832412e-06,0.0005161418,0.99945277,2.9620216e-05
48,1.2833391e-07,0.9999925,6.3873445e-06,9.4388247e-07
49,4.5662714e-06,1.6461883e-05,0.9997696,0.00020939576
50,1.4245248e-05,0.9998808,9.622317e-05,8.704633e-06
51,0.002267173,3.820132e-06,3.038787e-06,0.997726
52,7.469559e-06,3.8403945e-07,5.743154e-05,0.9999347
53,6.087247e-10,0.99999905,9.638977e-07,1.6368563e-08
54,0.00022907888,7.4010495e-06,0.99965274,0.00011076517
55,2.1139775e-05,3.4357265e-06,6.5811804e-07,0.9999747
56,2.734891e-09,0.9999964,3.4739217e-06,1.2950177e-07
57,0.99610305,0.00022244605,0.0017867804,0.0018877428
58,0.9994273,3.38763e-07,0.00020815592,0.00036416532
59,0.99999964,3.795316e-09,3.0539385e-07,4.25388e-08
60,0.99619603,3.984092e-06,2.181095e-05,0.003778181
61,1.2074499e-06,0.99909914,0.00089760666,2.064243e-06
62,0.004064858,0.0001166621,3.190709e-07,0.9958182
63,2.984605e-07,9.351446e-06,0.99998796,2.4241133e-06
64,0.99996364,9.4320285e-09,2.2054739e-05,1.4254719e-05
65,1.5215201e-07,0.9997392,0.00026011013,5.4560894e-07
66,1.5952966e-06,1.9256507e-07,0.9994344,0.0005637487
67,3.1347514e-07,0.99968934,0.00030987908,4.3235647e-07
68,7.610567e-09,0.9999707,2.9324623e-05,3.9238827e-08
69,0.9999678,2.9709394e-05,2.2716513e-06,2.309134e-07
70,9.1820315e-05,0.9998467,4.5600914e-06,5.6856647e-05
71,2.528007e-09,0.9999989,1.0845157e-06,1.4475096e-09
72,5.7241454e-08,0.99980146,0.00019830703,1.8746194e-07
73,6.9911675e-06,1.2284042e-06,0.00013289807,0.99985886
74,3.1611362e-06,8.6477047e-07,3.231943e-06,0.9999927
75,0.9994836,0.0004104586,0.000104170074,1.7462314e-06
76,5.3589293e-09,0.9999796,2.0306381e-05,1.1140697e-07
77,0.99899215,3.5799115e-07,4.547093e-07,0.0010069803
78,0.0004860977,0.0006608291,0.99861133,0.00024170807
79,0.00012411913,1.6022806e-05,0.0012552935,0.9986046
80,0.00082732306,2.456937e-07,8.639351e-07,0.9991716
81,0.9999449,5.658812e-07,3.0115252e-06,5.14754e-05
82,0.99948174,5.806467e-08,0.00043134615,8.687705e-05
83,5.130134e-06,0.99983895,0.0001526673,3.205192e-06
84,0.00027643656,8.077639e-06,7.2117946e-05,0.9996433
85,1.0197502e-07,0.9999652,1.469847e-05,2.00453e-05
86,0.0033721372,8.4958065e-06,2.7007316e-05,0.99659234
87,7.025714e-07,0.99999547,2.3910093e-06,1.403092e-06
88,1.3479672e-08,0.9995029,0.0004968412,2.0750221e-07
89,4.156499e-05,0.9999567,6.904304e-07,9.734326e-07
90,3.1718518e-08,0.9999999,1.1685501e-07,2.9238977e-08
91,0.99974746,1.0736151e-06,8.5673925e-08,0.00025143236
92,0.99988747,7.1206036e-06,8.077559e-05,2.4669818e-05
93,0.99529016,1.6697936e-07,0.0001147552,0.00459493
94,0.0008489725,7.349736e-05,1.352655e-06,0.9990761
95,4.4121367e-05,0.99954236,0.00039741624,1.6194004e-05
96,1.5629098e-09,0.9999902,9.761143e-06,1.2707149e-08
97,0.99972624,1.1564842e-06,0.00025748467,1.5074646e-05
98,9.803356e-08,0.999974,2.5738706e-05,1.4939127e-07
99,0.00018506202,6.606558e-06,0.99945706,0.00035125905
100,0.9993687,2.2545667e-07,0.00030665458,0.00032436225
101,0.99783057,0.0002053522,0.0017193232,0.00024479686
102,2.6757525e-07,8.812486e-06,0.9999584,3.246953e-05
103,0.99842274,2.0767151e-05,2.2049899e-07,0.0015563242
104,5.4168177e-06,3.2973716e-08,0.9999802,1.4332135e-05
105,2.4097325e-08,0.9999956,4.165615e-06,2.1191242e-07
106,0.9986154,1.5461274e-05,0.0008004606,0.00056873856
107,1.0587935e-09,1.0,2.3405041e-08,2.8630915e-09
108,6.6377737e-07,4.4644945e-05,0.9999217,3.2961743e-05
109,7.6280643e-10,0.999998,2.0058358e-06,1.4972512e-08
110,0.99941766,1.1349069e-06,3.3661684e-07,0.00058093824
111,0.99999845,1.6106917e-08,1.2440682e-06,2.5145383e-07
112,0.0001448382,3.4053521e-06,0.0014145584,0.9984372
113,7.2156663e-09,0.999998,1.9409697e-06,5.3113254e-08
114,3.916211e-09,0.99997306,2.6880098e-05,2.7286072e-08
115,6.1471843e-07,0.0009032498,0.9988777,0.00021844015
116,0.9998062,2.6457732e-07,2.5393064e-08,0.00019346087
117,2.4843331e-08,3.088511e-06,0.9999913,5.608685e-06
118,0.99955493,4.635353e-06,7.394255e-07,0.0004396454
119,0.00014657677,1.389203e-06,0.99984145,1.06117095e-05
120,3.5983578e-06,4.608738e-08,0.9997981,0.00019823092
121,5.6714462e-08,0.9999937,6.2878876e-06,1.0700938e-08
122,1.2297457e-06,2.4088645e-06,0.99999285,3.5719295e-06
123,1.6358318e-07,0.9995747,0.00042438408,6.7650404e-07
124,0.00037272173,5.433184e-05,7.6300175e-06,0.9995653
125,0.99740005,1.6440908e-06,4.794208e-06,0.00259348
126,2.6987396e-05,3.1037337e-07,1.1749154e-05,0.9999609
127,0.99971026,3.7223845e-06,2.9178917e-05,0.00025683705
128,0.00011982714,0.99955624,0.0002888268,3.5083707e-05
129,0.99779737,2.5163806e-06,6.4174536e-05,0.0021359415
130,2.9920249e-09,0.99995804,4.1963773e-05,1.6600648e-08
131,4.4122924e-05,1.1303059e-05,0.9998827,6.185836e-05
132,1.0052734e-09,0.99999607,3.9426254e-06,5.1956737e-09
133,0.99994695,6.901153e-08,4.2409963e-05,1.05549725e-05
134,2.1721482e-09,0.9999988,1.1966396e-06,1.028221e-09
135,8.9490804e-11,0.9999975,2.5182474e-06,2.9882246e-09
136,0.9999945,6.2141527e-09,5.079606e-06,3.5753314e-07
137,5.7850866e-07,2.565877e-06,0.999995,1.8733388e-06
138,4.827267e-06,6.056478e-07,2.7117781e-05,0.99996746
139,2.2051956e-06,1.9189893e-07,0.99987423,0.00012331593
140,0.9993956,1.342963e-05,2.6460897e-05,0.00056448375
141,1.1080755e-10,0.99999917,8.00354e-07,1.2211322e-08
142,1.6097437e-06,0.0034895118,0.99647564,3.318484e-05
143,2.5307976e-08,0.9999993,3.8642295e-07,2.7245457e-07
144,9.162818e-05,0.0001570507,0.0001673608,0.999584
145,1.1320288e-07,0.9988783,0.0011200361,1.5803545e-06
146,0.00021273352,2.3660083e-05,0.0003416017,0.9994221
147,4.708419e-08,0.99999785,1.1080424e-06,9.592949e-07
148,4.837765e-07,0.9940434,0.005916373,3.9711274e-05
149,0.9994362,0.000120077675,0.0004211322,2.2544806e-05
150,0.006007005,1.351828e-07,0.993719,0.00027386192
151,1.093273e-07,0.9969886,0.0030089123,2.4182395e-06
152,5.788541e-06,2.2146372e-08,0.9999839,1.02249705e-05
153,3.856478e-06,0.99999535,2.9293116e-07,4.999792e-07
154,8.668417e-07,4.4114563e-06,0.9999702,2.4497516e-05
155,2.3942137e-06,4.989593e-08,0.9999747,2.2782311e-05
156,0.0016858468,1.4758206e-05,1.526102e-05,0.99828416
157,3.4283745e-05,8.433232e-07,0.00012068073,0.9998442
158,1.3622572e-09,0.9999969,3.1172108e-06,1.0086378e-08
159,2.353245e-08,0.99999106,8.875162e-06,6.793605e-08
160,1.8352177e-08,0.9999875,1.1807449e-05,6.967515e-07
161,9.894774e-07,0.99999523,3.5749813e-06,1.7196736e-07
162,3.574993e-08,0.9996487,0.00035055293,7.485322e-07
163,9.155715e-08,3.6982204e-08,0.00037722572,0.9996226
164,5.007023e-10,0.9995339,0.00046598012,9.773842e-08
165,0.0012590169,1.0046194e-06,0.0010215344,0.99771845
166,0.9999974,5.5303484e-10,2.5778327e-06,7.296935e-08
167,0.9999212,1.3023748e-07,4.7639256e-05,3.0995645e-05
168,0.9999093,6.061312e-08,4.6871725e-07,9.015164e-05
169,0.00012841765,1.48158315e-05,1.1119501e-07,0.9998566
170,0.9981912,1.0960971e-05,7.6947236e-07,0.0017971065
171,5.160573e-09,0.9999522,4.778589e-05,1.9350164e-08
172,5.7174816e-06,1.1507147e-07,0.9998915,0.00010268022
173,0.9999492,5.1844204e-06,3.455079e-05,1.0985776e-05
174,1.3075761e-07,0.99898165,0.0010174362,7.923097e-07
175,6.0338954e-07,7.024953e-09,0.9999988,6.397849e-07
176,3.871719e-09,0.9999893,1.0609281e-05,7.426403e-08
177,5.429847e-07,0.99990845,8.916834e-05,1.8243326e-06
178,4.0134385e-08,0.99912506,0.00087349664,1.3759524e-06
179,0.9998822,1.8665163e-07,2.635171e-07,0.00011728577
180,6.4412696e-08,2.3345717e-06,0.9999902,7.4266436e-06
181,0.00055443135,5.5863966e-05,1.1177503e-05,0.99937844
182,1.5263038e-06,7.630005e-08,0.9999423,5.6128487e-05
183,0.002314781,0.9976094,6.799822e-05,7.872469e-06
184,0.000935631,2.7685512e-06,1.2696637e-07,0.9990615
185,5.7749827e-07,0.99868923,0.0013100369,1.08125874e-07
186,0.009781761,7.860053e-08,0.0005940777,0.9896241
187,0.00022814178,4.3826156e-05,4.0536142e-06,0.999724
188,1.0625786e-06,0.9999964,1.6074644e-06,9.655973e-07
189,0.99571687,4.6580244e-06,1.9477477e-06,0.0042765555
190,5.177903e-08,0.9999969,3.0033236e-06,1.3219936e-08
191,0.99507636,2.0203634e-05,3.304016e-05,0.0048704436
192,9.488161e-05,6.244536e-07,2.2394545e-07,0.9999043
193,1.0092305e-07,0.9999964,2.956523e-06,4.906292e-07
194,2.9455654e-08,0.99999976,2.3619275e-07,2.1208546e-08
195,0.001078747,7.147177e-05,5.2235435e-05,0.99879754
196,6.8346853e-09,1.2682688e-07,0.9999988,1.0624899e-06
197,0.0009697747,0.0006864129,0.99806184,0.00028199764
198,5.761071e-07,8.406658e-08,0.9947018,0.0052975123
199,5.9207446e-06,0.9999714,1.47219625e-05,8.010446e-06
200,1.410526e-08,0.9999993,5.3292604e-07,2.00891e-07
201,3.1845854e-08,0.9999591,4.0755276e-05,1.0056074e-07
202,0.9999914,1.8378275e-08,5.0487824e-06,3.486583e-06
203,2.279565e-07,1.2870003e-05,0.999985,1.9046306e-06
204,5.0407207e-06,0.0024371117,0.9975267,3.1152256e-05
205,0.9999987,5.2763998e-09,8.061848e-07,4.6489308e-07
206,4.654331e-08,0.9999566,4.277852e-05,5.632544e-07
207,4.437851e-09,0.99999964,3.6219203e-07,3.282833e-08
208,0.99732107,0.0024437665,7.2713465e-07,0.00023448457
209,0.00024769403,1.2526608e-06,1.34643415e-05,0.99973756
210,0.9996573,1.0029807e-07,1.1807248e-06,0.0003414974
211,5.033419e-07,3.6692893e-06,8.28687e-06,0.9999875
212,1.2564197e-10,0.99999976,2.2987862e-07,8.0398477e-10
213,5.5560556e-09,5.3634874e-08,0.99999964,3.3436837e-07
214,0.9989071,6.91691e-07,1.06283046e-07,0.0010921085
215,0.0074644885,0.0017862662,0.0009621092,0.9897871
216,3.63564e-08,0.9999987,1.1611653e-06,1.15865696e-07
217,0.99241513,1.593805e-05,0.0063191443,0.0012498364
218,9.070163e-07,2.1177933e-05,0.99996614,1.1725709e-05
219,1.4465452e-06,1.0895426e-07,0.9999919,6.605852e-06
220,0.0030964708,5.7644048e-08,0.9968624,4.1118805e-05
221,9.179316e-06,1.0599844e-05,2.0592826e-05,0.9999596
222,2.1396676e-05,4.4266537e-07,0.99996805,1.0082987e-05
223,0.00016167753,3.639596e-05,0.0010548971,0.998747
224,0.9997657,3.782993e-07,7.1108916e-05,0.00016282598
225,0.0023042979,8.129663e-05,0.0020817823,0.99553263
226,1.9021256e-05,2.5941724e-06,0.99984896,0.00012942412
227,3.6497222e-05,0.0010944542,0.9983369,0.00053205824
228,0.000652488,2.2142588e-06,1.0929451e-05,0.9993344
229,1.4192064e-07,0.99952316,0.00047608512,5.998147e-07
230,2.2688724e-05,2.4796045e-06,2.3397291e-05,0.9999515
231,2.0214432e-06,3.1819496e-07,2.5005605e-07,0.9999974
232,0.998331,1.1884649e-05,8.730388e-07,0.0016562421
233,1.121735e-08,0.9999895,1.0442631e-05,1.0284198e-08
234,5.864233e-06,0.9994029,0.00059082324,4.2332994e-07
235,0.99915564,6.4599837e-09,0.00082078675,2.360312e-05
236,6.511502e-05,0.9997458,8.872608e-05,0.000100398785
237,9.000567e-11,0.9999989,1.0271053e-06,5.9788746e-10
238,2.3988898e-09,0.9998085,0.00019022562,1.2902377e-06
239,0.99999285,2.6295188e-08,1.0123323e-08,7.1637014e-06
240,2.8409883e-07,0.9999995,1.5380114e-07,3.8131894e-08
241,2.0546831e-07,1.3622731e-07,5.3849694e-06,0.9999943
242,0.9985014,8.796093e-05,2.8355478e-05,0.0013822647
243,0.0033848735,2.3184295e-05,2.2441027e-05,0.9965695
244,3.690731e-06,0.99977833,0.0001682504,4.9770308e-05
245,1.087593e-06,6.9429035e-08,7.4311165e-06,0.9999914
246,2.944923e-05,2.6135595e-07,0.99969816,0.00027212602
247,0.0003916511,4.4520615e-07,1.51879385e-05,0.9995927
248,0.00021808241,3.4260117e-07,0.001295007,0.9984865
249,2.0608825e-06,0.9999442,5.1267638e-05,2.5003546e-06
250,0.9999969,9.778589e-09,3.0188762e-06,1.2387004e-07
251,1.0487393e-06,1.4171272e-07,0.99207944,0.007919426
252,0.999795,3.9641898e-07,0.00020361357,9.831031e-07
253,0.00042846776,2.6179785e-05,0.0012911673,0.9982541
254,5.122488e-10,0.9999994,5.077807e-07,4.074197e-08
255,1.6306229e-06,1.574643e-07,0.99999726,9.629828e-07
256,0.0005717382,5.047066e-05,0.9990133,0.00036449177
257,0.0001267369,5.38347e-06,0.00010161922,0.9997663
258,0.994718,9.887231e-06,5.237362e-07,0.0052715656
259,3.5458284e-10,0.999984,1.5993763e-05,1.3643857e-08
260,8.653703e-07,0.9999269,6.795143e-05,4.241366e-06
261,6.982556e-05,0.9998789,2.7247506e-05,2.4061117e-05
262,2.9841225e-08,0.99999654,3.2518442e-06,2.292137e-07
263,0.9976956,1.571484e-06,1.703877e-06,0.0023010678
264,0.9952956,0.00036752765,3.7740566e-07,0.0043365452
265,2.0032573e-09,0.9999988,1.1543673e-06,1.7423535e-09
266,7.490428e-09,0.99958104,0.00041888646,3.041616e-08
267,0.00021223254,3.7151437e-06,4.7405747e-06,0.9997793
268,2.3928042e-08,5.0981537e-08,0.99999726,2.6713908e-06
269,2.1059947e-08,0.9999914,7.817567e-06,7.8632485e-07
270,0.0006287803,0.0004244763,0.99889463,5.2144e-05
271,1.1000922e-06,1.7860626e-07,0.9999962,2.5281968e-06
272,0.0022548994,0.997717,1.8666515e-05,9.407172e-06
273,0.9999789,8.97896e-06,1.191441e-05,1.6746627e-07
274,1.6586935e-09,1.0,1.2168319e-08,4.939075e-10
275,8.80361e-09,1.5504378e-05,0.99998415,2.9820671e-07
276,0.9999125,1.2835548e-05,7.2174385e-05,2.4489364e-06
277,9.841542e-05,2.10529e-05,3.4493532e-05,0.999846
278,1.268613e-05,0.99808705,0.0018677588,3.2534117e-05
279,1.4482541e-05,8.212194e-06,0.9999647,1.2614093e-05
280,4.5105404e-05,2.335152e-06,0.9999155,3.7057995e-05
281,3.3994686e-05,1.0051556e-06,0.9995036,0.0004613361
282,0.9990257,0.00015760466,0.00054107467,0.00027566837
283,0.99986064,6.719734e-07,9.643776e-07,0.00013767713
284,0.9999802,4.333592e-09,1.7029995e-05,2.7887882e-06
285,0.99746275,0.00012066882,7.684461e-07,0.0024157804
286,7.236484e-11,0.9999999,6.566009e-08,2.931267e-09
287,5.244539e-09,0.99999964,3.1415016e-07,1.4224003e-08
288,3.165803e-07,5.850344e-07,0.99999785,1.2197316e-06
289,9.833296e-11,0.99999976,1.9731274e-07,3.7790727e-08
290,5.2911673e-07,0.9999944,4.7686403e-06,3.411579e-07
291,3.9498005e-09,0.99999905,9.442173e-07,1.5484268e-08
292,0.00011553837,2.9109929e-06,1.0517812e-06,0.99988043
293,0.00059594074,1.6516726e-05,6.4427804e-05,0.9993231
294,0.002659014,8.792529e-05,1.0159371e-06,0.99725205
295,0.9998779,0.000107842156,1.1589491e-05,2.6424063e-06
296,9.980327e-08,0.9999951,4.7739177e-06,4.03765e-08
297,6.1397365e-08,0.9999989,1.0185527e-06,3.090258e-08
298,2.6724772e-05,1.1653702e-06,1.31092775e-05,0.999959
299,1.6083131e-08,0.9999969,2.9831135e-06,1.09711166e-07
300,0.005952133,3.5020125e-06,1.1596795e-06,0.9940432
301,0.9999647,3.796914e-09,3.5251778e-05,7.130932e-08
302,7.5285095e-07,0.9997464,0.00025269168,1.797839e-07
303,0.00061216496,6.102938e-07,4.2857077e-06,0.999383
304,0.00014823563,1.484295e-07,0.9982603,0.0015913034
305,0.9999989,9.9511634e-09,5.9637415e-07,4.7792815e-07
306,0.9979621,0.001770839,2.4277606e-08,0.00026699895
307,0.9996691,1.1181781e-06,5.006767e-07,0.00032927425
308,0.999923,2.4072976e-06,2.3672304e-05,5.0965093e-05
309,0.0025505133,6.0462917e-06,6.3265594e-07,0.99744284
310,0.99831676,1.2728688e-06,4.9822138e-08,0.00168194
311,2.4678653e-05,3.7197806e-06,3.5472062e-06,0.99996805
312,0.0014112038,1.567213e-05,8.514171e-06,0.99856466
313,0.00036743112,1.0483272e-05,6.4206156e-06,0.99961567
314,2.0521124e-06,6.0309816e-08,0.9999931,4.820789e-06
315,0.9985398,0.0013942831,5.7328925e-06,6.0137492e-05
316,0.99999404,1.4555313e-09,5.927223e-06,7.239684e-08
317,0.00027699146,0.00022362119,0.0003024674,0.99919695
318,1.3807812e-08,0.9997012,0.00029849177,2.6580997e-07
319,0.0026938699,3.350291e-06,0.9969578,0.0003450176
320,8.216713e-09,0.99997556,2.3918092e-05,5.16092e-07
321,2.0920252e-06,1.4997884e-06,0.99996877,2.7654012e-05
322,1.2018619e-06,9.994982e-07,4.469346e-05,0.99995315
323,0.9999887,4.0991896e-08,1.0504409e-05,7.5409775e-07
324,5.293116e-08,0.99995303,4.6800033e-05,1.4552815e-07
325,0.996693,1.229723e-07,0.003257224,4.964952e-05
326,6.079495e-06,0.9984779,0.0015028267,1.3169145e-05
327,0.00014805018,1.7491618e-06,6.523132e-05,0.999785
328,0.9908466,0.0064053955,0.0012769744,0.0014711026
329,1.5937865e-06,3.725433e-08,0.9999368,6.1522354e-05
330,2.0582164e-07,0.99999297,6.201075e-06,6.3882396e-07
331,3.615336e-07,0.9999939,5.5834403e-06,1.4000189e-07
332,1.6882796e-08,0.9999943,5.647599e-06,1.998361e-08
333,0.9996891,0.00014883792,0.00016089025,1.2194469e-06
334,3.145433e-08,0.9999939,5.9548147e-06,1.235153e-07
335,8.240325e-05,0.99989617,6.0938237e-06,1.5321213e-05
336,0.9999851,1.8704853e-08,8.387261e-06,6.484932e-06
337,0.99487925,9.089371e-05,1.6304512e-06,0.005028237
338,2.3070642e-08,0.99996614,3.3827073e-05,5.023919e-08
339,0.9999682,2.6831317e-06,2.8939601e-05,2.2397172e-07
340,8.835513e-05,9.117356e-07,8.751522e-06,0.999902
341,0.9980192,2.054109e-07,2.5881942e-05,0.0019546817
342,0.00012469172,7.4017873e-07,5.2902124e-07,0.999874
343,1.4588964e-09,0.9999802,1.9707571e-05,3.824697e-08
344,7.964084e-06,0.9992312,0.0007212036,3.9638253e-05
345,0.99818856,8.859434e-08,3.382547e-07,0.0018109573
346,3.5036448e-06,7.6050246e-06,0.9999864,2.5329698e-06
347,0.0046561826,4.077016e-05,4.491185e-05,0.99525815
348,9.51167e-09,0.9999987,1.3328107e-06,2.6839658e-08
349,2.4336102e-06,7.5970877e-07,0.9999937,3.155302e-06
350,1.3126036e-05,1.0885239e-07,0.99981564,0.00017118348
351,4.6804118e-07,0.9999937,5.4298366e-06,4.4767748e-07
352,2.7415101e-09,0.9999037,9.6123935e-05,1.832868e-07
353,9.096278e-08,0.9999951,4.276338e-06,4.819831e-07
354,1.114729e-09,1.0,1.3290692e-08,2.5496344e-10
355,1.3737362e-07,8.5358915e-06,0.99999,1.3055952e-06
356,2.0813563e-06,9.4449426e-08,0.9999887,9.1406655e-06
357,0.99997175,1.4854224e-07,8.854526e-09,2.811105e-05
358,1.620483e-06,8.1208685e-07,0.99997735,2.018599e-05
359,2.0030729e-08,0.99998057,1.938044e-05,4.7157343e-08
360,0.99814093,1.45935655e-05,0.0017963101,4.8204376e-05
361,1.4068015e-08,0.9999169,8.164368e-05,1.4031503e-06
362,0.004304175,2.2063268e-06,1.7591092e-06,0.99569184
363,0.00022183085,0.9997614,3.7261727e-06,1.3053573e-05
364,5.7209512e-08,1.5524636e-05,0.9999833,1.0796847e-06
365,1.8910196e-06,4.5663864e-08,0.9999541,4.3916418e-05
366,1.4947376e-09,0.9999987,1.184013e-06,1.3485209e-07
367,4.413966e-06,4.9829723e-06,2.961957e-05,0.999961
368,0.99997616,2.3099571e-09,7.705782e-06,1.6106136e-05
369,7.665813e-06,0.99996567,2.5286272e-05,1.327905e-06
370,0.9997217,5.9241427e-07,1.2712197e-06,0.00027642713
371,0.00021840286,3.3444342e-06,0.00015541336,0.9996228
372,3.7867176e-10,0.9999999,1.026718e-07,1.3244804e-09
373,7.836361e-07,6.77918e-07,0.9999908,7.694747e-06
374,0.9999864,1.6648906e-08,6.9305843e-06,6.587377e-06
375,2.2048434e-06,6.9055126e-08,0.99999297,4.7160675e-06
376,1.3325682e-07,0.99996793,3.1891075e-05,8.165084e-08
377,0.9999671,1.7101791e-05,9.828358e-06,6.003671e-06
378,0.99935466,3.2167331e-06,4.2587834e-07,0.0006417541
379,7.589443e-06,3.996576e-06,0.9999602,2.821211e-05
380,2.7852325e-08,0.9999995,3.622749e-07,5.526222e-08
381,0.0020235411,0.000104648316,6.312798e-06,0.9978655
382,0.9988967,4.99782e-07,7.113382e-07,0.0011019855
383,2.646135e-06,3.5228038e-07,0.9999758,2.1257762e-05
384,2.5972442e-05,1.4452174e-07,0.9999161,5.7787252e-05
385,1.2721969e-06,2.9111436e-06,0.9999894,6.407305e-06
386,6.949743e-09,1.0,3.03289e-08,5.528889e-09
387,4.506722e-06,0.99996746,7.913588e-06,2.0177282e-05
388,0.9999956,2.6640945e-10,1.3788308e-06,3.0137148e-06
389,0.00068698195,0.99927324,1.3952639e-06,3.8434766e-05
390,4.745895e-07,2.0556225e-05,0.999964,1.4929536e-05
391,0.00017669,2.865785e-06,0.99968576,0.00013470136
392,1.5654223e-07,0.9995109,0.000488424,5.388897e-07
393,3.7412497e-05,0.9999604,1.1613367e-06,1.0575282e-06
394,1.7287206e-06,0.00012279631,0.99986875,6.6729617e-06
395,0.99990666,5.0435997e-08,3.9049497e-09,9.325106e-05
396,0.0013940108,2.6749936e-05,1.2088441e-06,0.9985781
397,5.389122e-06,9.0719595e-07,1.6241503e-07,0.99999356
398,1.8168106e-09,0.9999993,6.854369e-07,1.563241e-08
399,8.386469e-05,0.0008280961,0.99830097,0.0007871115
400,2.012826e-07,0.9997304,0.0002692487,1.233474e-07
401,7.136225e-10,0.99995995,3.9973394e-05,6.475591e-08
402,0.99697864,3.4613643e-06,3.161245e-07,0.0030176628
403,8.7452605e-07,1.0130917e-07,0.9999831,1.5909847e-05
404,0.9997961,0.00020306384,6.724659e-07,1.5663021e-07
405,0.99871194,8.985115e-06,0.0005662957,0.00071273197
406,0.9999931,1.8817712e-09,6.0105413e-06,9.4444306e-07
407,0.9993611,0.00011866868,2.018211e-07,0.00052000885
408,9.3311145e-09,0.9999988,1.1259693e-06,1.4167916e-08
409,0.9999759,2.5228585e-08,1.5649295e-05,8.34711e-06
410,0.99998224,1.7604265e-09,1.0513873e-05,7.207627e-06
411,0.9995937,2.2924529e-07,5.261217e-07,0.00040562186
412,5.456558e-08,4.3793085e-09,0.99999344,6.463943e-06
413,1.2685835e-07,0.9999075,9.17528e-05,5.736659e-07
414,0.99992776,3.3957438e-08,5.1418094e-05,2.0824973e-05
415,1.9348464e-07,0.001687196,0.99831164,9.388676e-07
416,0.99796164,2.1291659e-07,0.0017176406,0.00032053184
417,2.7351692e-07,0.999998,1.6764341e-06,6.220913e-08
418,2.5953196e-07,5.6297966e-05,0.9999398,3.658506e-06
419,3.3415423e-10,0.9999976,2.3905038e-06,5.1761364e-09
420,3.4554304e-09,0.9959888,0.004010393,8.5990285e-07
421,1.02464e-06,0.9999913,5.6035365e-06,2.109957e-06
422,0.9998548,1.7661363e-05,4.274286e-08,0.00012746341
423,1.51012e-06,5.8504673e-07,6.581218e-06,0.9999913
424,9.569145e-08,1.9228271e-07,0.99999917,5.8636397e-07
425,3.474885e-10,0.9999801,1.9898158e-05,1.294001e-08
426,1.9654879e-05,0.99988556,8.1854116e-05,1.2904647e-05
427,4.013592e-09,0.99990165,9.729931e-05,1.0866329e-06
428,1.7367158e-07,0.9999975,2.2467198e-06,8.213231e-08
429,4.0291535e-09,0.99999857,1.0269944e-06,3.5707185e-07
430,1.1651704e-06,0.9997818,0.00021492534,2.182689e-06
431,0.00017456028,1.0337621e-06,0.00015831945,0.9996661
432,1.3587347e-10,0.9999832,1.6716765e-05,3.6303035e-08
433,1.2359676e-07,7.740759e-08,0.9999989,9.1904474e-07
434,3.2424093e-06,6.4543025e-07,0.9891263,0.010869789
435,5.9589325e-07,1.4426449e-07,2.675703e-07,0.99999905
436,9.187758e-07,7.8564426e-07,0.9999876,1.0718722e-05
437,0.00011652141,0.9967319,0.0031460873,5.541347e-06
438,4.9251046e-08,3.7144764e-07,0.9999988,7.658201e-07
439,0.00017924975,1.6870138e-06,0.99767333,0.0021457796
440,1.1645886e-08,0.99999964,3.3062923e-07,4.583844e-09
441,6.0135512e-06,1.2852549e-06,0.9999807,1.2054875e-05
442,1.2124616e-09,0.99999595,4.0308287e-06,1.4752618e-08
443,0.9999776,2.4236728e-09,2.0130723e-05,2.3121856e-06
444,3.983663e-07,0.0016955832,0.9982956,8.446813e-06
445,2.4993167e-05,4.643624e-06,4.6191613e-07,0.99996996
446,0.9884034,0.00034221314,1.7779003e-05,0.011236677
447,1.2397427e-06,0.9999869,9.866475e-06,2.020751e-06
448,0.005811975,4.450184e-06,0.0020130225,0.99217063
449,0.007145462,0.00090536627,3.9980856e-05,0.9919092
450,1.1400319e-05,0.999982,4.395311e-06,2.1545334e-06
451,1.4079297e-06,4.855736e-07,1.5600243e-06,0.99999654
452,1.9854777e-08,0.9999925,7.454612e-06,8.508612e-08
453,1.3672544e-05,0.99998105,3.9511856e-06,1.3237251e-06
454,6.984087e-08,0.9999987,1.0357267e-06,2.5198153e-07
455,6.6503685e-07,0.9997003,0.0002984926,6.201137e-07
456,3.1158538e-07,0.9999807,1.871472e-05,2.3912466e-07
457,1.3395104e-09,0.9999999,6.0037415e-08,1.9021739e-08
458,7.6267085e-08,0.9999527,4.7281603e-05,1.6862849e-08
459,9.821973e-07,0.99980515,0.00019353596,3.5183953e-07
460,0.00038551842,0.0001095627,3.0024474e-05,0.99947494
461,0.99767405,4.7024194e-05,1.1313226e-06,0.002277827
462,0.0022701246,0.9966978,2.9791885e-05,0.0010022814
463,1.124633e-05,6.6231866e-07,0.9968322,0.0031558522
464,0.99996555,1.2590828e-06,3.1647014e-05,1.5127392e-06
465,2.4627288e-06,0.99918145,5.700172e-05,0.0007591218
466,0.007481618,1.3873919e-06,0.00040512293,0.9921118
467,0.00027411085,2.537958e-06,6.211846e-05,0.9996612
468,0.99398416,8.6900826e-08,0.006005769,1.0043096e-05
469,1.01866e-09,0.99999905,9.167216e-07,1.2029524e-08
470,0.99953175,2.6827882e-07,2.6468436e-07,0.0004677891
471,5.0349957e-08,4.7136507e-07,0.99999785,1.6273646e-06
472,2.7534283e-05,0.00017434396,0.99978596,1.21302e-05
473,1.129809e-09,0.9999943,5.630095e-06,3.440781e-08
474,0.0025539284,4.5631687e-06,0.99685186,0.00058970926
475,0.9981608,9.126741e-06,1.9603785e-07,0.0018299212
476,3.4835384e-07,1.453381e-09,0.9999995,8.510587e-08
477,6.5958006e-10,0.9999999,9.2874316e-08,2.8738436e-08
478,3.8822545e-08,0.99978215,0.00021298681,4.8431184e-06
479,0.99785066,0.00015540513,0.00027387778,0.0017200968
480,1.4507963e-06,4.894332e-06,5.4260818e-05,0.99993944
481,0.9964281,7.42356e-07,3.2587576e-07,0.00357088
482,8.62577e-05,5.642018e-06,4.20163e-06,0.9999039
483,8.7787676e-08,0.9999902,9.655605e-06,6.995454e-08
484,0.99880576,4.5793783e-08,2.3464614e-05,0.0011707853
485,6.555012e-06,0.000112742484,0.9998534,2.7250837e-05
486,0.99551505,0.00010281881,1.1489974e-06,0.004380926
487,0.99991846,4.071925e-08,5.8750583e-08,8.146088e-05
488,5.1632617e-07,1.0631414e-07,0.0013145271,0.9986848
489,0.00010891638,2.119303e-06,2.9822942e-07,0.99988866
490,0.0037352196,1.0496016e-05,0.00011779935,0.9961365
491,2.0471734e-05,0.00050844345,0.99926347,0.00020760502
492,0.99985623,2.0930637e-09,4.6730725e-06,0.0001390764
493,7.969702e-05,2.9568591e-06,0.99928445,0.000632973
494,0.99889874,5.6412773e-08,1.6430675e-05,0.0010847477
495,3.0768113e-08,0.9999927,7.2202242e-06,1.4746999e-08
496,0.998965,5.846044e-06,1.602308e-06,0.0010274875
497,7.134495e-10,0.9999999,1.1114817e-07,4.2619086e-10
498,5.483348e-10,0.99999976,1.8939711e-07,1.0419786e-09
499,5.115589e-05,2.492743e-06,2.2618711e-07,0.9999461
500,1.40417225e-08,0.9999974,2.4426922e-06,1.9727013e-07
501,0.0018032053,1.9333609e-06,4.0938694e-06,0.9981908
502,6.352892e-09,0.99999964,7.347368e-08,2.3852513e-07
503,0.9999548,4.4994826e-07,4.030655e-08,4.4659366e-05
504,9.3181814e-07,3.6449654e-07,7.568992e-05,0.999923
505,0.0008241719,1.4643003e-05,4.0923773e-08,0.9991611
506,1.1504021e-06,3.2631878e-08,0.999998,8.675786e-07
507,0.9996809,1.2883021e-05,0.00030248406,3.7891439e-06
508,0.9979261,1.3328113e-06,3.5047438e-07,0.002072237
509,2.5191177e-05,0.9997856,0.0001792921,9.959138e-06
510,1.5495969e-05,0.9999404,1.245351e-05,3.1703374e-05
511,8.127567e-10,0.9997925,0.00020742255,5.863527e-08
512,0.004163383,3.422865e-05,3.3186687e-05,0.99576926
513,1.1569347e-09,0.9982886,0.0017113504,1.0025211e-07
514,0.9992423,2.9241354e-08,0.0007114859,4.622562e-05
515,1.714832e-05,2.92084e-06,0.9998604,0.0001195377
516,6.006278e-10,0.9999522,4.761616e-05,1.41042e-07
517,4.348027e-07,4.369168e-05,0.9999534,2.4244293e-06
518,0.00079935143,2.7060696e-05,1.1258952e-05,0.9991623
519,0.99996364,4.2267808e-07,1.2418165e-08,3.5979705e-05
520,2.608861e-06,4.756114e-08,1.0439948e-06,0.9999963
521,3.7140446e-09,0.9999999,8.636488e-08,2.379279e-09
522,0.0006914255,1.9237712e-06,0.001053046,0.99825364
523,0.99951255,1.5371569e-07,0.0003680962,0.00011922325
524,4.968113e-08,8.489585e-06,0.9999863,5.170831e-06
525,6.55449e-05,1.8547318e-05,6.203861e-07,0.99991524
526,9.002225e-09,0.99999905,8.9149967e-07,5.786503e-08
527,7.629957e-06,5.563575e-07,0.9999807,1.1120383e-05
528,0.99718815,0.0024369676,0.00011445396,0.00026044445
529,0.99403536,1.7801167e-06,4.0447056e-05,0.0059224246
530,1.263322e-09,0.9999999,1.5690377e-07,4.455587e-09
531,0.0028185823,7.903164e-06,3.4849214e-07,0.9971732
532,5.8343285e-05,2.7851681e-06,0.99670595,0.0032329492
533,0.006928248,0.00010634371,1.439253e-06,0.9929639
534,5.6228927e-10,0.999997,3.017987e-06,1.2692193e-08
535,6.4522956e-06,5.0632354e-07,0.9999771,1.5895148e-05
536,0.0005605812,0.998533,0.00064332434,0.0002630894
537,2.4638555e-06,0.999997,3.9306062e-07,1.1101564e-07
538,4.213265e-06,3.217354e-07,0.9986343,0.0013611363
539,1.1774007e-10,0.9999994,5.86683e-07,4.659588e-10
540,0.99917054,1.8279948e-08,0.0008156321,1.3787531e-05
541,5.837682e-08,0.9999126,8.718905e-05,1.133535e-07
542,0.9955504,0.000115107934,2.7211144e-07,0.0043342356
543,3.9601434e-07,0.99987423,0.00012457134,8.189589e-07
544,0.99989724,3.9339714e-09,9.747766e-05,5.214059e-06
545,0.0026421132,1.0523164e-05,1.6315953e-05,0.997331
546,6.822064e-06,3.9779903e-07,0.00293235,0.99706036
547,5.760622e-05,1.2389202e-07,0.99966145,0.0002808581
548,1.5475413e-05,0.9998661,8.189015e-05,3.6483856e-05
549,2.1025005e-07,0.99999356,5.8905416e-06,3.4423917e-07
550,0.0006219654,5.743726e-07,6.715637e-06,0.99937075
551,0.99606436,2.7712565e-05,1.8086645e-07,0.003907789
552,0.00037520766,9.4134157e-07,0.00045732912,0.9991665
553,0.9981652,1.3890791e-06,0.00010056043,0.0017329388
554,1.95857e-09,0.9999951,4.8123416e-06,1.5053104e-08
555,1.2202196e-06,0.9998361,0.0001596011,3.1173429e-06
556,8.637623e-06,3.487984e-05,0.99980706,0.00014942554
557,1.9391862e-07,1.1241488e-07,0.99999285,6.8251125e-06
558,6.7346635e-09,5.4054894e-06,0.9999944,1.403304e-07
559,0.99998355,2.055724e-10,1.5926296e-05,5.03836e-07
560,0.99573946,0.0005728415,1.4735278e-05,0.0036730026
561,0.99961036,8.455078e-05,2.1060708e-07,0.00030487686
562,4.169386e-06,2.2005597e-06,0.99995935,3.4239296e-05
563,0.0023699573,6.3209036e-06,4.0799904e-07,0.99762326
564,0.0049413624,1.4240672e-06,0.9950481,9.085587e-06
565,0.0050567454,0.99493355,3.0168824e-06,6.7540327e-06
566,4.7352406e-09,0.9999987,1.2557454e-06,2.5764868e-08
567,0.0006724784,4.352877e-07,1.04397934e-07,0.99932706
568,5.822627e-10,0.99999976,2.1282916e-07,5.6319408e-08
569,0.999271,1.1324037e-05,0.0007130109,4.637653e-06
570,4.084404e-09,0.9999995,4.3820052e-07,2.042985e-08
571,2.4162887e-06,0.99999547,1.8857238e-06,2.0800717e-07
572,0.99995935,5.3437887e-08,1.3059594e-05,2.7530761e-05
573,0.001634929,4.9127753e-05,0.0001264241,0.9981895
574,0.004050655,0.99571157,6.567808e-05,0.00017208485
575,5.3784852e-08,0.9998299,0.00016746137,2.5425825e-06
576,2.2033682e-06,2.9775757e-07,5.207083e-07,0.999997
577,3.717022e-08,0.99999774,2.110679e-06,6.429118e-08
578,2.1107494e-06,0.99999297,3.389872e-06,1.5838723e-06
579,0.99390346,2.458873e-05,0.0055414573,0.00053041324
580,0.9996369,2.0798157e-07,0.000109122746,0.00025377827
581,9.780312e-06,0.999977,2.686584e-06,1.0577852e-05
582,1.926706e-08,0.9999627,3.715423e-05,1.5145962e-07
583,1.9778513e-08,0.99937904,0.00062058266,2.7887535e-07
584,3.4478083e-07,0.9999627,3.5984373e-05,9.5127706e-07
585,1.2262041e-09,0.9999999,4.780897e-08,2.9071039e-08
586,1.5430959e-10,0.9999999,1.3884633e-07,9.581781e-10
587,1.1098755e-05,0.9998068,0.00018066251,1.4653856e-06
588,1.7752821e-08,0.99999654,3.357431e-06,5.344701e-08
589,4.5334806e-07,3.0962096e-07,0.9999875,1.1707354e-05
590,2.65454e-06,3.0838206e-07,9.139735e-07,0.99999607
591,5.7756388e-05,2.1318579e-06,0.00012823887,0.99981195
592,0.00019099787,2.1526496e-07,9.4373014e-08,0.9998087
593,4.0028925e-07,0.99998355,1.5674283e-05,3.3153765e-07
594,5.586744e-07,1.09441935e-07,0.9999126,8.6755674e-05
595,1.216082e-07,0.9999981,1.7692057e-06,7.294101e-08
596,1.10410174e-10,1.0,4.5942905e-08,1.2179249e-09
597,8.1692826e-07,1.4178585e-06,2.5272493e-06,0.99999523
598,0.99594325,0.003685433,0.0001163614,0.000254986
599,0.99997485,7.2700044e-07,2.1698772e-05,2.6975613e-06
600,9.253081e-05,2.126692e-06,0.0002229981,0.9996823
601,5.789911e-09,0.9999913,8.657235e-06,4.3015913e-08
602,1.3822793e-06,8.177312e-06,0.9999758,1.46873745e-05
603,6.419464e-06,1.0462306e-07,0.9999703,2.3159835e-05
604,0.0020823458,1.8012666e-06,0.0019551571,0.99596065
605,1.3970734e-06,7.8913206e-07,0.0010599451,0.9989379
606,2.7960683e-09,0.99999964,3.5802356e-07,6.580334e-09
607,8.434711e-08,0.9999857,1.3711938e-05,5.6438864e-07
608,6.1443774e-05,2.1970638e-05,0.9996326,0.0002840175
609,0.0010532269,4.4232644e-07,2.0928735e-06,0.9989442
610,6.9722546e-06,1.6737265e-07,2.8539566e-06,0.99999
611,0.0010047338,0.00030573385,0.99862266,6.682571e-05
612,3.3702963e-06,7.4493033e-07,1.6195561e-05,0.99997973
613,0.0025023005,0.0003835646,4.849945e-06,0.99710935
614,1.8164793e-09,0.99998856,1.1348488e-05,8.3479556e-08
615,0.9994388,4.7946133e-07,0.00036383313,0.00019683992
616,6.752086e-05,4.1085923e-07,7.1088886e-07,0.99993134
617,2.3648568e-06,0.9999465,2.549553e-05,2.562719e-05
618,5.141205e-07,0.9999924,6.205041e-06,9.0649866e-07
619,5.868105e-07,0.9998925,0.0001066476,2.2148689e-07
620,3.8483293e-08,0.99994874,5.094347e-05,2.58382e-07
621,3.5446828e-08,0.9999727,2.7182396e-05,7.035152e-08
622,0.002321719,0.0004547333,0.99695045,0.00027309524
623,2.7769578e-09,0.9999945,5.417815e-06,3.167633e-08
624,7.284839e-09,0.9999982,1.7969093e-06,2.4299037e-08
625,7.9532474e-05,0.99985814,4.364034e-05,1.8619558e-05
626,1.5638987e-07,4.7389466e-07,0.99999416,5.1815687e-06
627,3.8579137e-06,2.020397e-06,0.99999094,3.1938819e-06
628,0.002898299,7.7884515e-06,7.985877e-07,0.9970931
629,0.9999883,3.107512e-09,1.0898796e-07,1.1628682e-05
630,0.003051213,5.3452844e-05,2.1996939e-05,0.9968733
631,3.8352308e-08,0.9999993,3.0599253e-07,3.7183025e-07
632,8.59367e-07,2.1778654e-07,0.0038890913,0.9961098
633,0.0009813493,2.441531e-06,0.99725026,0.0017659444
634,0.9921187,3.2703498e-05,0.0073189097,0.0005296881
635,5.1251086e-06,7.933023e-07,0.9999862,7.904255e-06
636,7.38832e-08,0.99999416,5.309432e-06,4.271783e-07
637,0.99876285,2.0369464e-05,6.299204e-06,0.0012105372
638,0.994925,0.00012289245,0.004831659,0.00012045621
639,1.3912186e-09,0.99999964,2.981425e-07,2.475617e-08
640,0.0012700389,0.99544144,0.0023103312,0.0009782319
641,4.753791e-08,0.00018603443,0.9998092,4.716195e-06
642,0.9981147,1.0581408e-05,7.804414e-06,0.0018669096
643,0.9996363,8.393062e-08,6.460127e-07,0.00036290585
644,4.5406722e-07,0.99996936,1.8901768e-05,1.1257371e-05
645,0.98938495,3.4240064e-05,2.430472e-05,0.010556513
646,3.5122586e-08,0.99999964,2.9638485e-07,2.1056506e-08
647,9.956278e-06,1.8273091e-07,7.012442e-06,0.99998283
648,2.47243e-05,0.9990422,0.00088818144,4.4895627e-05
649,9.053102e-10,0.99999714,2.7855554e-06,1.628023e-08
650,0.999956,2.2393494e-06,8.888589e-08,4.162478e-05
651,4.2189133e-10,0.9999999,9.5149154e-08,2.2847951e-08
652,0.9999083,5.281426e-07,9.090456e-05,2.878272e-07
653,1.4146401e-07,0.9999721,2.7171598e-05,5.2157696e-07
654,0.00037222245,4.5120323e-06,3.2418757e-07,0.99962294
655,0.010393063,2.5847356e-05,9.335006e-05,0.98948777
656,7.0181655e-10,0.99999964,2.928003e-07,1.3189121e-08
657,8.1862944e-10,0.9999999,1.3355434e-07,3.3210854e-09
658,6.536306e-09,0.9999888,1.1179712e-05,1.8439884e-08
659,2.2745744e-10,0.99999976,1.9736149e-07,4.530949e-10
660,3.927799e-08,6.446417e-08,5.5994224e-07,0.9999993
661,4.1912833e-07,0.999884,0.00011509054,4.296655e-07
662,2.1746555e-06,0.99785537,0.0020624138,8.0049955e-05
663,2.4265966e-05,0.99849284,0.0013772217,0.000105700885
664,6.675626e-08,0.9998635,0.00013608352,3.81316e-07
665,4.467306e-08,0.9999958,3.985646e-06,9.255069e-08
666,0.000107277214,0.00019769101,0.0017076188,0.9979874
667,1.5197821e-07,0.9997836,0.00021456016,1.6968573e-06
668,1.4633762e-09,0.9959705,0.004029205,3.9092612e-07
669,1.506656e-08,0.99999976,1.6500205e-07,3.455842e-08
670,1.5232951e-05,0.9986314,0.0013522852,1.0286759e-06
671,2.1663046e-08,0.9999174,8.241702e-05,1.1462516e-07
672,5.4436473e-08,0.99999917,7.8090625e-07,1.3058724e-08
673,0.0004947758,3.4780564e-06,0.0002733725,0.99922836
674,2.1010244e-08,0.9982462,0.0017535661,1.797577e-07
675,0.00045381024,3.07113e-05,8.673399e-06,0.99950683
676,0.9996082,6.816422e-09,0.00039091866,8.71901e-07
677,0.998346,2.064597e-05,3.012299e-07,0.0016330618
678,7.726683e-11,0.9999999,9.177182e-08,5.0551985e-10
679,0.99993825,6.2859044e-07,6.0961407e-05,1.3151869e-07
680,2.4380981e-06,1.4353822e-06,5.7895715e-05,0.99993825
681,2.8637905e-06,1.7822146e-07,4.5153908e-07,0.99999654
682,0.0010681199,1.4686992e-05,7.0761325e-07,0.9989165
683,9.085979e-05,7.846685e-06,9.847566e-05,0.9998029
684,3.7679968e-07,0.9999975,1.5262686e-06,6.5911104e-07
685,1.4054924e-06,1.769196e-05,0.9999653,1.5597205e-05
686,0.9998945,1.9326042e-07,2.5476947e-07,0.00010509568
687,9.3010084e-07,0.9999914,5.7275355e-07,7.0911856e-06
688,0.9997812,4.676705e-07,0.00021667639,1.7159223e-06
689,3.085426e-09,0.99993956,6.0397968e-05,1.0974772e-08
690,2.474822e-07,0.9964066,0.003591315,1.8195376e-06
691,0.9999913,3.1606884e-08,6.038942e-06,2.581298e-06
692,0.9950799,0.0002487613,2.7813774e-06,0.0046686023
693,1.4748268e-06,8.144647e-06,4.232318e-05,0.999948
694,0.0019761235,1.2641866e-06,3.6298306e-06,0.998019
695,8.47972e-06,5.3839967e-06,0.0008007861,0.9991854
696,1.4131507e-06,0.9987435,0.001254205,9.826058e-07
697,3.5354256e-05,0.9999044,2.4317505e-06,5.777892e-05
698,2.2686347e-05,5.3835356e-07,2.2668514e-06,0.9999745
699,0.00017809037,7.803484e-06,0.99980575,8.417083e-06
700,2.3483277e-07,0.9994,0.00059885246,9.0599025e-07
701,0.00017269581,4.062848e-05,3.3946412e-06,0.99978334
702,0.99839765,2.9129724e-08,9.657077e-06,0.0015927098
703,0.00022593167,4.562226e-06,0.99949276,0.00027675496
704,0.9997904,1.4003781e-08,9.299933e-06,0.00020038709
705,0.00016299126,2.1230635e-06,0.002711562,0.9971233
706,0.9999925,2.0252777e-09,6.4868104e-06,1.0118455e-06
707,3.2980042e-06,1.5823416e-07,0.9940357,0.0059607597
708,2.1113983e-08,0.9999981,4.265323e-07,1.4494597e-06
709,0.9999502,3.0676042e-06,3.1993288e-05,1.4772026e-05
710,0.99576557,0.0009117641,0.003164782,0.0001578492
711,2.0325838e-06,0.99998116,1.2933393e-05,3.9237552e-06
712,0.9992887,1.3803786e-06,1.0688838e-06,0.00070884946
713,4.045521e-08,0.9999989,1.0081523e-06,6.136271e-08
714,0.0008426429,2.1825072e-05,1.704787e-05,0.9991185
715,8.004902e-10,0.9999963,3.649541e-06,3.293212e-09
716,0.0020686926,0.0012085419,3.6298288e-06,0.9967192
717,2.6979686e-08,0.99998,1.9950561e-05,6.621907e-08
718,1.413958e-08,0.99969065,0.00030931673,2.0989619e-08
719,8.880076e-05,1.7907096e-05,0.99894255,0.000950807
720,1.4758052e-06,0.99956805,0.000426489,3.958944e-06
721,3.3200647e-06,4.9232885e-06,0.0017821324,0.9982096
722,1.446e-05,0.9998957,3.36023e-05,5.622423e-05
723,1.9213543e-08,0.9999982,1.6639929e-06,4.6200384e-08
724,3.4418872e-09,0.9999901,9.885532e-06,6.41586e-09
725,2.061663e-09,0.99997056,2.7871702e-05,1.5733573e-06
726,8.5840945e-08,0.012368179,0.98762727,4.425997e-06
727,1.6332193e-05,3.0023845e-08,0.9999732,1.05165855e-05
728,2.9990657e-05,8.004668e-06,9.696663e-05,0.99986506
729,9.802503e-09,1.0,4.9591087e-09,1.4407406e-09
730,3.749219e-08,0.9997056,0.0002935508,7.910757e-07
731,1.0036229e-06,3.5199292e-08,0.99999356,5.4257e-06
732,0.0003250014,0.00028101,0.00030531434,0.99908864
733,0.0015172869,3.9131228e-05,2.624259e-07,0.9984433
734,5.0025196e-06,7.1274303e-07,0.9999918,2.4805772e-06
735,0.99992657,9.750473e-08,6.8318586e-05,4.983851e-06
736,0.9999119,7.887926e-09,1.4799239e-05,7.3264724e-05
737,0.00012570029,0.0009923567,0.998844,3.7858477e-05
738,7.4479153e-06,7.088287e-07,0.9999683,2.3550718e-05
739,0.99769044,3.0500335e-06,6.887953e-05,0.0022376825
740,1.44047035e-05,7.6046064e-08,1.5748569e-06,0.9999839
741,3.5681953e-08,0.99999976,2.3035682e-07,1.9291898e-08
742,0.99449605,8.9840505e-05,4.3864447e-06,0.0054096733
743,0.99947065,5.4415227e-06,0.0004749432,4.8922222e-05
744,3.7683745e-05,3.1810143e-06,0.999887,7.209515e-05
745,1.558641e-05,0.99989676,8.630201e-05,1.2852329e-06
746,5.597646e-08,0.99999917,7.2262736e-07,7.693454e-08
747,0.999959,1.8597431e-08,6.246828e-08,4.089235e-05
748,9.181493e-06,4.447186e-06,0.999944,4.237462e-05
749,3.5812326e-09,0.9999777,2.2072178e-05,2.6356514e-07
750,1.4788144e-08,0.99999034,9.62512e-06,4.2643766e-08
751,0.0003211514,1.759126e-05,4.1488732e-07,0.99966085
752,0.00014529133,1.8185489e-06,2.283642e-06,0.99985063
753,0.99848074,3.0989773e-05,2.2307306e-05,0.0014660096
754,4.7846772e-08,0.9999796,1.758511e-05,2.7413093e-06
755,2.8341606e-06,0.9999951,1.7045238e-06,2.9489064e-07
756,0.99964046,0.00034992362,6.732265e-06,2.848995e-06
757,2.217639e-07,0.99993217,6.676928e-05,8.7248145e-07
758,0.99332535,9.5064615e-06,1.7789088e-07,0.006664992
759,0.99277616,3.7258797e-05,5.1554543e-06,0.007181441
760,0.99999976,1.5529761e-09,1.2402417e-07,7.341878e-08
761,1.4498238e-09,0.99991226,8.770457e-05,5.966037e-08
762,0.9999182,2.426737e-07,8.053148e-05,1.0508373e-06
763,3.9737006e-05,1.8244364e-06,7.440034e-06,0.999951
764,4.6623882e-07,0.99984896,0.00014816235,2.364439e-06
765,2.9234043e-10,1.0,6.3187193e-09,4.5035624e-09
766,0.0013894734,1.6992399e-05,6.09155e-06,0.9985875
767,0.9999566,6.330535e-08,4.151392e-05,1.8717938e-06
768,0.00017815619,2.2142924e-06,6.771668e-05,0.99975187
769,9.807043e-10,0.9999523,4.7676374e-05,1.794164e-08
770,9.4332654e-07,8.780046e-06,0.99988973,0.00010055919
771,0.00012984859,7.328551e-07,0.0004566967,0.9994128
772,0.99996185,3.6668233e-08,3.2565404e-05,5.5418413e-06
773,0.99825066,4.7312304e-05,0.0016553258,4.6694837e-05
774,1.877996e-08,0.9997658,0.00023401862,1.15873405e-07
775,0.9990982,1.4028308e-06,0.0008715834,2.8829618e-05
776,2.6049557e-07,2.0218599e-07,0.9999989,5.7851094e-07
777,1.08617905e-05,1.8033293e-07,0.9999584,3.0512598e-05
778,0.9989942,2.6271297e-07,1.1239781e-06,0.0010044375
779,1.4054163e-08,0.9999999,9.174539e-08,5.1670535e-09
780,4.1856765e-07,0.0004066461,0.9995927,2.701471e-07
781,9.60363e-08,0.9999554,4.4361153e-05,1.2692567e-07
782,1.37119e-06,0.99998724,8.811e-06,2.579971e-06
783,7.910644e-09,0.9999974,2.5940055e-06,1.6143684e-08
784,2.1805295e-07,2.4714398e-06,0.9999864,1.0857621e-05
785,4.0675604e-05,1.3833139e-06,4.5450714e-05,0.9999125
786,2.8938036e-08,0.9999995,3.9175438e-07,5.0315382e-08
787,0.9992592,4.480589e-08,0.0006929409,4.7769623e-05
788,0.99929476,7.8944715e-05,1.0916621e-05,0.0006153145
789,2.1671582e-05,0.9999627,1.1877426e-05,3.8106243e-06
790,1.6668472e-06,0.9999974,7.088249e-07,2.4882405e-07
791,0.0022755063,1.5551063e-06,2.294353e-05,0.99770004
792,8.410804e-05,7.674413e-07,0.99971503,0.00020011056
793,3.0322478e-06,1.6238814e-06,0.9999685,2.68285e-05
794,0.00015168273,1.715338e-05,0.9982085,0.0016226514
795,0.9957867,3.5911737e-06,0.0037996578,0.0004099707
796,2.4599181e-08,0.99997807,2.1613008e-05,2.635434e-07
797,2.3950229e-06,4.837413e-07,0.99998856,8.600612e-06
798,5.456959e-11,0.99999976,2.2378002e-07,9.141224e-09
799,3.927363e-09,0.9999994,5.885766e-07,1.3129205e-08
800,6.138571e-08,0.99977297,0.00022673633,2.163109e-07
801,0.013744689,5.59055e-06,0.0032975646,0.9829522
802,7.037286e-05,1.0905099e-05,5.2299114e-05,0.99986637
803,0.9999695,6.181374e-08,1.3085745e-05,1.7388698e-05
804,0.0005998403,2.6135872e-06,2.0166395e-05,0.9993774
805,2.3819743e-05,2.9679436e-06,0.9999188,5.442315e-05
806,0.0007171307,0.9986382,0.0004463693,0.00019830425
807,1.01471e-09,0.9999819,1.799491e-05,8.2530676e-08
808,0.00034265302,2.1194337e-06,2.3285775e-06,0.99965286
809,0.99999857,1.6491557e-08,5.594198e-07,8.112573e-07
810,0.00069313816,9.994999e-06,3.938099e-06,0.99929285
811,6.5382454e-07,0.99999356,5.0188664e-06,8.144548e-07
812,1.8196538e-06,0.99994206,5.3548512e-05,2.6220512e-06
813,0.9984498,1.3821541e-07,0.0015471941,2.8250192e-06
814,0.9992465,1.3560186e-05,1.2866428e-06,0.00073875405
815,1.9013771e-07,0.99997807,2.163685e-05,1.1039044e-07
816,0.005180819,0.00022701533,5.797064e-07,0.99459153
817,0.9999372,6.494616e-08,6.262156e-05,1.6520886e-07
818,0.00019033608,3.178156e-06,1.5034891e-07,0.99980634
819,1.2263664e-05,3.0662493e-06,0.99426347,0.0057212333
820,5.6694134e-09,0.9995633,0.00043669014,4.774737e-08
821,0.00015401578,8.042694e-05,0.9992986,0.00046701144
822,3.8091795e-08,0.99999833,1.255594e-06,3.329729e-07
823,3.0376102e-09,0.99999166,8.201302e-06,1.9339905e-07
824,1.553551e-05,0.006093697,0.9938637,2.7127582e-05
825,1.4650544e-09,0.9998246,0.00017545524,2.3784683e-08
826,1.0473362e-05,4.762217e-07,0.9983708,0.0016182477
827,6.1657247e-06,1.8876943e-07,0.00015496262,0.9998387
828,0.00017431033,0.00056278746,0.99916995,9.293421e-05
829,8.398618e-06,4.4578273e-06,0.99996984,1.7361397e-05
830,2.0101398e-07,0.9996643,0.0003341522,1.366925e-06
831,3.3346769e-06,0.0027566373,0.99723226,7.79657e-06
832,0.9998087,4.31572e-08,8.102374e-05,0.00011017894
833,2.1974538e-09,0.99973303,0.00026693864,1.6961906e-08
834,0.99731016,1.779513e-05,2.7862467e-05,0.002644149
835,0.002384026,2.8121323e-07,0.9974775,0.00013825746
836,2.627876e-05,2.0515014e-08,0.9999671,6.5895747e-06
837,0.9969825,9.675667e-06,0.0025347301,0.00047312444
838,1.8565935e-07,1.5612711e-06,0.99999726,1.0260874e-06
839,2.7251343e-07,0.9999845,1.495622e-05,2.1273542e-07
840,0.004237367,1.1932531e-05,2.1298292e-06,0.9957486
841,0.9997814,9.749583e-07,0.00011339946,0.00010423401
842,0.99743146,9.259136e-06,0.0013602315,0.0011990969
843,0.9977785,2.1399113e-05,9.281249e-07,0.0021991502
844,3.24531e-07,1.1119496e-06,4.930277e-05,0.9999492
845,2.7846403e-07,7.604558e-07,1.0377939e-05,0.99998856
846,1.6725997e-08,0.999998,2.0568505e-06,1.0554408e-08
847,6.239336e-05,0.9999026,2.8643643e-05,6.3393345e-06
848,0.0067611733,6.7588836e-08,3.8791524e-07,0.99323833
849,0.9928994,9.660857e-06,4.315266e-06,0.0070865517
850,0.9999707,1.7862895e-07,1.8905108e-05,1.0204563e-05
851,5.09678e-05,0.011996222,0.9879359,1.6943806e-05
852,0.00041180925,0.00019732272,1.0380288e-05,0.99938047
853,3.2634112e-10,0.9997452,0.00025472307,1.1837133e-07
854,2.5575116e-06,1.9124622e-05,0.99994326,3.505952e-05
855,0.99546117,7.9974576e-05,1.0457888e-05,0.0044483533
856,4.615317e-09,0.99985933,0.00014058275,8.8942585e-08
857,0.99971277,4.5183046e-07,1.5751921e-07,0.00028655265
858,3.7343324e-09,0.9998247,0.00017526594,1.6527101e-08
859,0.9968964,1.3534023e-07,5.2186147e-07,0.0031029708
860,0.00040224052,1.2113053e-05,0.0021818683,0.9974038
861,5.219504e-05,1.04918236e-07,0.99966156,0.00028614557
862,2.3479463e-09,0.9999651,3.4892302e-05,1.9342e-08
863,2.1621963e-05,1.0627327e-06,0.99936634,0.00061099965
864,0.0026669821,4.080204e-05,3.9815504e-06,0.9972882
865,0.9982382,0.0011938537,9.345487e-06,0.00055860874
866,0.00010590535,4.002799e-06,2.0057447e-05,0.99987006
867,0.0026219194,3.0259446e-06,1.1327956e-05,0.99736375
868,0.9998858,4.89812e-05,1.7457941e-07,6.503117e-05
869,0.00019911466,0.9996277,0.00011382557,5.9356706e-05
870,2.0408314e-05,6.3530945e-07,0.998262,0.001717033
871,2.7085765e-09,0.9997657,0.00023414091,1.1511714e-07
872,4.3877975e-05,8.733386e-07,0.0011642423,0.99879104
873,6.5024675e-10,0.99992955,7.0453396e-05,1.1704459e-08
874,3.8623234e-06,2.1606853e-07,0.9999918,4.1820936e-06
875,0.003904853,5.439596e-05,5.973336e-06,0.9960348
876,0.99848515,8.042622e-06,0.00148989,1.6985701e-05
877,1.3034396e-06,0.99999595,1.4361113e-06,1.2656149e-06
878,6.645063e-05,1.9693666e-06,0.99991584,1.5779526e-05
879,0.003794734,1.5294498e-05,3.0458032e-06,0.9961869
880,0.0033114552,4.469271e-06,4.2847996e-06,0.9966798
881,8.659629e-09,0.99999833,1.5718592e-06,4.2613372e-08
882,5.6640476e-10,0.99994814,5.1773768e-05,4.586637e-08
883,0.00031362867,8.798207e-06,7.5439866e-06,0.99967
884,0.00029813318,1.0110822e-05,1.0978542e-05,0.99968076
885,8.3674126e-07,0.99996626,3.0480003e-05,2.4414821e-06
886,4.634941e-06,3.7287934e-06,0.00010800189,0.99988365
887,1.2966372e-07,0.9997956,0.00020343861,8.577514e-07
888,1.0428084e-11,0.9999995,5.154074e-07,2.9225222e-10
889,6.5829505e-07,1.1094443e-06,6.51705e-07,0.9999976
890,1.1805021e-07,2.455207e-05,0.9999697,5.598843e-06
891,0.9998894,6.6660107e-07,6.631549e-05,4.3648695e-05
892,3.7392012e-06,0.9999645,3.1055926e-05,7.380232e-07
893,2.5754194e-05,2.1908932e-07,7.809345e-08,0.9999739
894,2.9851228e-06,6.6436564e-07,0.9999759,2.0391442e-05
895,3.7047033e-07,1.4564687e-06,0.999985,1.3191035e-05
896,4.748718e-07,9.77416e-07,0.99430734,0.005691258
897,0.0022742227,1.627412e-05,1.6437359e-06,0.99770784
898,0.0011311705,2.9757557e-06,0.00015700479,0.99870884
899,3.8015855e-06,0.999995,8.5229067e-07,4.0137067e-07
900,0.0005644866,4.4727235e-06,5.5914484e-06,0.99942553
901,4.800658e-08,7.308428e-07,0.99999523,3.955363e-06
902,0.9999857,1.0449971e-09,1.2686804e-05,1.6729e-06
903,6.815759e-10,0.99999964,2.6442694e-07,5.1145285e-08
904,0.9994235,6.4343667e-06,0.0005480231,2.2106613e-05
905,8.456305e-09,0.9999949,5.0999947e-06,2.9645227e-08
906,9.233261e-05,1.1964405e-06,1.6079705e-06,0.9999049
907,5.389272e-05,0.9999293,9.203082e-06,7.603314e-06
908,0.9977301,1.0087747e-06,8.064759e-05,0.002188322
909,0.004828897,8.953694e-06,0.0006447629,0.9945174
910,1.7298344e-09,0.99998605,1.354204e-05,4.39148e-07
911,0.9975313,4.0403247e-06,0.002361502,0.00010312418
912,4.045783e-06,0.9999702,2.2001104e-05,3.8046976e-06
913,6.854241e-07,0.99974984,0.00022731326,2.2170465e-05
914,4.7283464e-07,1.1032753e-06,5.200968e-05,0.99994636
915,1.6718331e-09,0.99999976,1.8195773e-07,3.8984442e-09
916,0.0049756463,1.19334445e-05,0.9945378,0.00047460519
917,0.0015435611,0.00011414506,5.4236193e-07,0.9983417
918,0.0007167189,1.25687475e-05,2.1527705e-06,0.9992686
919,0.99429506,0.0055659297,7.23387e-05,6.668216e-05
920,0.002780397,1.4125378e-06,0.0022582426,0.99495995
921,0.0002431914,1.3107505e-05,3.4193715e-08,0.99974364
922,0.00024087523,2.8652897e-07,4.0315027e-07,0.9997584
923,2.2707968e-07,0.9999707,2.902663e-05,7.7479854e-08
924,9.060627e-07,0.9990664,0.00093107275,1.6405252e-06
925,1.0263113e-07,0.99994314,5.591824e-05,8.2763813e-07
926,0.9975563,2.511057e-05,0.0021317182,0.00028677075
927,5.3273882e-11,0.9999999,9.5869815e-08,1.189812e-08
928,5.77687e-07,2.1735569e-07,0.999967,3.2200507e-05
929,0.99996555,5.956165e-09,2.7162016e-05,7.3133533e-06
930,0.0009685862,0.00017317203,6.9670057e-07,0.9988575
931,0.0001574275,3.0123126e-06,1.1354042e-06,0.99983835
932,0.99976844,4.5262198e-07,1.7797971e-07,0.00023098664
933,6.0842885e-05,3.5092875e-05,1.0219088e-05,0.9998938
934,0.9954739,6.4749725e-07,7.55374e-07,0.0045246435
935,2.3744777e-05,2.1880337e-06,0.9998128,0.00016134535
936,0.9962102,5.780704e-06,5.0136794e-07,0.0037835662
937,9.647509e-07,0.999871,8.247288e-05,4.5512414e-05
938,3.963678e-06,2.1053214e-07,4.253371e-06,0.99999154
939,6.894787e-06,2.8819792e-07,0.9911016,0.008891152
940,6.0244895e-07,0.99863225,0.0013664988,5.8942e-07
941,0.008512341,5.89992e-06,2.112053e-05,0.9914607
942,7.2640177e-07,6.550463e-07,0.999954,4.4587494e-05
943,0.9999919,2.9560557e-08,7.203498e-06,8.763797e-07
944,0.00010308501,2.2486769e-05,3.9947818e-07,0.999874
945,7.889547e-05,7.417221e-07,0.99983025,9.011469e-05
946,7.9425185e-08,0.99784255,0.0021543184,3.0214183e-06
947,1.4631115e-09,0.99999857,1.234281e-06,1.3924847e-07
948,4.2069907e-05,1.8714779e-06,0.0013658751,0.9985902
949,9.084412e-07,0.99985373,0.00014427664,1.0710354e-06
950,0.99519473,1.9452073e-05,0.0001973502,0.0045884727
951,3.1684823e-07,0.99999034,5.703783e-06,3.643965e-06
952,3.8615497e-07,0.9996184,0.00037893193,2.1921362e-06
953,2.8866678e-10,0.9999883,1.1470231e-05,2.6741768e-07
954,6.527976e-05,1.3719937e-06,0.9999132,2.0094843e-05
955,7.198435e-06,1.4378181e-06,6.8336725e-05,0.999923
956,9.530184e-06,5.22155e-07,3.0656267e-07,0.9999896
957,1.8481502e-06,0.9999858,4.9252476e-06,7.4352997e-06
958,1.978936e-06,3.8598222e-07,0.99998724,1.0358803e-05
959,0.99993324,6.0742923e-06,3.828209e-05,2.2338307e-05
960,1.7351586e-07,1.1522098e-07,0.9975261,0.0024736472
961,0.9996754,3.7649172e-06,0.0002497948,7.10146e-05
962,0.00027289742,1.2203475e-05,0.000100481855,0.99961436
963,0.9967372,6.632694e-05,0.0015630389,0.0016334293
964,6.08731e-10,0.9999026,9.734051e-05,8.681095e-08
965,0.0033106694,8.819308e-06,4.42472e-06,0.9966761
966,0.00034454762,2.3168677e-06,4.814143e-05,0.999605
967,5.5741495e-08,1.0045585e-06,0.9999832,1.5764223e-05
968,4.9307753e-05,0.9987903,0.0011517738,8.675102e-06
969,1.0299599e-08,0.9999639,3.6125286e-05,1.9959003e-08
970,0.9972045,2.2445092e-05,1.1363354e-05,0.0027617125
971,0.0051714643,6.4746678e-06,1.2341721e-05,0.99480975
972,6.3504086e-09,0.999992,7.86319e-06,7.397625e-08
973,7.5783546e-06,3.3184241e-07,3.4466175e-06,0.9999887
974,0.00023937346,1.47014725e-05,2.7078456e-06,0.99974316
975,2.108342e-09,0.9999958,4.113776e-06,7.698621e-09
976,0.9996082,4.17577e-05,3.5310545e-06,0.0003464864
977,9.161179e-08,4.744578e-08,0.99999785,1.9796328e-06
978,0.99657214,1.3233531e-06,8.587674e-06,0.0034179874
979,2.9077654e-07,1.7010838e-07,0.9999943,5.2900996e-06
980,8.985276e-05,0.9995964,0.00029892506,1.4788178e-05
981,0.9996184,0.00036968794,1.0262074e-06,1.081589e-05
982,3.9105964e-07,0.99999833,8.19989e-07,4.341249e-07
983,0.9988111,5.7472744e-07,1.6812328e-07,0.0011881603
984,1.4352362e-10,0.9999969,3.0104554e-06,3.7566828e-08
985,1.5393796e-09,0.99999714,2.8641364e-06,5.734192e-09
986,2.829811e-07,0.9993678,0.0006283913,3.5475082e-06
987,0.0018383384,2.8529792e-07,0.99813807,2.3310979e-05
988,0.99956876,5.734161e-06,5.3299595e-07,0.0004250142
989,3.3069514e-09,0.99999785,2.1012397e-06,1.0713583e-08
990,1.46818735e-08,0.9999746,2.5139703e-05,2.1155886e-07
991,2.2354546e-07,1.1194298e-06,1.5148962e-06,0.99999714
992,5.6943866e-10,0.9999993,6.9591164e-07,4.277675e-09
993,4.577857e-08,0.99999857,1.3153997e-06,2.4628136e-08
994,1.4776292e-06,0.99940324,0.0005940779,1.1585707e-06
995,0.0029672396,0.00010606705,0.996768,0.00015866963
996,1.0650368e-06,8.467677e-08,0.0001368428,0.99986196
997,1.08606635e-08,0.99999344,6.3561893e-06,1.3809826e-07
998,8.034696e-09,0.9997284,0.00027158306,1.15970495e-08
999,0.9984931,0.0014285657,3.5651763e-05,4.2673073e-05
1000,6.486845e-06,2.9933857e-05,0.9999521,1.1548952e-05
1001,0.00030660746,0.00025324986,0.9992532,0.00018690666
1002,1.0921115e-05,1.158175e-06,2.0412712e-05,0.99996746
1003,0.99754214,8.174337e-07,0.002349878,0.00010718324
1004,0.0021980444,1.5839727e-05,4.2304437e-06,0.99778193
1005,9.128978e-08,0.99999964,2.3538118e-07,5.4812613e-08
1006,1.519414e-08,0.9999995,4.2859045e-07,3.5197825e-08
1007,2.5038556e-08,0.99998915,1.0759008e-05,2.3690658e-08
1008,0.99998665,1.6414445e-08,1.6110599e-06,1.17455575e-05
1009,3.3924836e-05,4.1150292e-07,0.9999366,2.9115577e-05
1010,3.020676e-08,0.99981767,0.00018205574,2.5875423e-07
1011,0.9999944,2.8751819e-08,5.2294763e-06,3.3713246e-07
1012,1.9626027e-06,1.4693496e-06,1.1673765e-05,0.99998486
1013,1.1495454e-06,1.6929984e-06,0.00011765335,0.9998795
1014,1.5073685e-08,0.9999461,5.366396e-05,2.602514e-07
1015,2.7603983e-05,1.63608e-06,7.5168624e-05,0.9998956
1016,0.99995744,1.3815547e-05,2.498618e-05,3.711722e-06
1017,6.8738217e-07,0.006292069,0.993697,1.03065395e-05
1018,1.3504206e-07,0.9999894,1.0465181e-05,6.238743e-08
1019,0.0001062419,3.0594572e-07,3.3668557e-06,0.9998901
1020,0.000117975884,8.382081e-07,0.9998629,1.8201492e-05
1021,2.6002995e-06,2.439395e-05,0.99996984,3.1566053e-06
1022,3.982403e-05,6.4803635e-06,0.0005758255,0.99937785
1023,2.8846355e-06,0.9981622,0.0018141851,2.0698153e-05
1024,0.99902046,3.73312e-05,6.2700997e-07,0.0009416283
1025,1.4011626e-08,0.9999956,4.30914e-06,5.9551084e-08
1026,9.671129e-07,0.9998672,0.000130938,8.3074616e-07
1027,0.0014128215,1.4889216e-06,0.0004635574,0.99812216
1028,1.3473916e-08,0.99988055,0.000118908036,4.718252e-07
1029,3.0872531e-09,0.9999975,2.5463478e-06,1.11570095e-08
1030,7.2554496e-09,0.99999547,3.0727062e-06,1.4124228e-06
1031,2.0165323e-06,0.0002790857,0.99967754,4.1369993e-05
1032,0.9982389,0.0017582019,1.7566095e-06,1.0645051e-06
1033,0.99882895,0.0010416476,0.00010243005,2.6957541e-05
1034,7.2280372e-06,6.948726e-09,0.9999871,5.6505273e-06
1035,5.128895e-08,0.9999571,4.261107e-05,2.3189297e-07
1036,1.8382322e-07,2.7226215e-05,0.9999708,1.8166022e-06
1037,0.99978536,1.9641132e-06,6.137009e-08,0.00021261083
1038,0.00094810716,8.820221e-05,0.0029669518,0.9959967
1039,1.166229e-08,0.9999957,4.309868e-06,1.9773926e-08
1040,0.011265944,2.3976936e-05,3.1528975e-06,0.98870695
1041,3.9349356e-07,1.0661303e-06,0.9999745,2.4017472e-05
1042,4.631486e-08,0.9999248,7.5008335e-05,2.0995108e-07
1043,0.9965418,6.56534e-07,0.0026197827,0.00083774613
1044,0.9996973,1.1377808e-05,2.9357913e-08,0.0002912512
1045,1.1366987e-05,1.4797596e-06,0.9944885,0.0054986244
1046,0.00036016994,1.1310735e-06,1.971609e-05,0.999619
1047,1.5494257e-08,2.8349903e-05,0.99996877,2.875177e-06
1048,5.288645e-07,5.560281e-08,0.9999621,3.7277296e-05
1049,0.004239193,1.2528592e-05,7.5097967e-07,0.9957475
1050,2.829222e-07,6.899578e-07,0.9999987,3.3211612e-07
1051,0.9988865,4.826829e-06,3.8312104e-05,0.0010703715
1052,5.0513677e-06,5.044909e-07,0.9998481,0.00014631072
1053,5.2577185e-08,0.9999722,2.747509e-05,2.0953057e-07
1054,0.99873966,5.8148633e-08,0.0012269304,3.3403532e-05
1055,0.00979818,0.99017125,8.564751e-06,2.1962847e-05
1056,1.0046034e-06,3.574334e-06,4.778897e-08,0.99999535
1057,0.002301286,1.139545e-05,4.735666e-06,0.9976826
1058,3.3164983e-07,2.8239365e-06,0.9999956,1.2820751e-06
1059,2.0877685e-08,0.9999987,1.2063838e-06,2.5277277e-08
1060,0.99642974,8.3601066e-05,0.0003173576,0.003169381
1061,5.389749e-07,0.999995,9.5129326e-07,3.571307e-06
1062,0.9981065,3.3239115e-07,1.3262195e-05,0.0018799509
1063,3.3030392e-07,0.99925774,0.0007371374,4.819803e-06
1064,0.00031432582,3.630461e-05,1.17991334e-07,0.9996493
1065,0.0009575311,0.9967033,0.0023131086,2.6023132e-05
1066,0.9965643,3.7676316e-06,3.4271547e-08,0.0034319256
1067,8.3145904e-05,3.1539912e-05,0.00037627065,0.9995091
1068,6.3704847e-10,0.9999808,1.9233752e-05,4.83322e-09
1069,0.0025424666,0.0024184894,0.0001317593,0.9949073
1070,0.00038850465,3.1063819e-06,1.3838694e-05,0.9995945
1071,0.00014852057,1.7248733e-07,0.99930096,0.00055035244
1072,0.99446034,5.858364e-05,2.220018e-05,0.0054588933
1073,7.877906e-07,1.0379842e-08,0.99999595,3.199611e-06
1074,7.5928955e-07,0.9999939,5.006138e-06,2.984799e-07
1075,0.0011916305,8.0308433e-07,7.136468e-07,0.99880683
1076,0.9973532,3.0292114e-07,8.0880376e-08,0.0026464693
1077,5.434879e-06,0.9998615,0.00012931557,3.793658e-06
1078,0.00023546303,6.1985324e-06,0.00012876275,0.9996296
1079,5.3831955e-06,0.99825865,0.0017276825,8.296348e-06
1080,0.999481,4.8024907e-07,4.8659196e-08,0.0005185031
1081,0.0060074143,6.718075e-06,1.5781839e-07,0.9939857
1082,3.3915994e-09,0.99997747,2.2312617e-05,2.1189526e-07
1083,7.624828e-08,0.9999826,1.7005936e-05,2.8680236e-07
1084,0.99994266,1.6277543e-08,1.0258919e-07,5.7255307e-05
1085,0.99595547,0.00018194492,8.1232787e-07,0.003861821
1086,0.9995815,1.1436946e-06,2.3788509e-07,0.00041716406
1087,0.0013235857,5.101824e-06,8.671049e-06,0.9986626
1088,0.9948048,4.705791e-06,2.6430938e-05,0.005164041
1089,1.0569454e-08,0.99812263,0.0018771855,1.2737e-07
1090,3.0947076e-06,5.498138e-07,2.6320598e-05,0.9999701
1091,0.99988866,4.287034e-06,2.824323e-07,0.00010673562
1092,0.00072065805,0.9988287,0.0003427642,0.000107846274
1093,3.7114426e-06,2.1647165e-06,0.99998033,1.3812188e-05
1094,0.0018133444,5.3973044e-06,8.967322e-08,0.9981812
1095,0.000107933665,3.987436e-06,0.9994293,0.00045876205
1096,4.0069045e-07,0.0028896704,0.99710804,1.8855366e-06
1097,0.00020768029,1.2480618e-05,2.1493986e-05,0.9997583
1098,4.3693777e-07,0.9999747,2.4643847e-05,2.419064e-07
1099,0.9995554,2.7910748e-06,6.058462e-08,0.0004417424
1100,8.185596e-10,0.9999527,4.72747e-05,1.570975e-08
1101,5.460733e-06,1.4571283e-06,6.748345e-05,0.9999256
1102,2.5962584e-07,6.8600666e-06,0.9999294,6.349376e-05
1103,0.0008046044,3.624715e-05,5.0408477e-07,0.9991586
1104,5.1369047e-05,0.00024757875,0.9993818,0.000319211
1105,4.316141e-06,1.93941e-07,0.9998803,0.00011510329
1106,0.9998492,5.692466e-07,2.7607231e-05,0.00012254532
1107,2.0332784e-06,5.197129e-07,8.8512694e-05,0.9999089
1108,2.6096235e-05,1.9272255e-07,0.99995136,2.2392996e-05
1109,0.99994874,2.9852907e-07,4.2324504e-05,8.590458e-06
1110,0.9995832,1.1753914e-07,0.000246297,0.00017043044
1111,0.0005822517,2.2329375e-05,1.0543863e-06,0.9993943
1112,0.9986344,3.1465208e-06,9.460439e-08,0.0013623611
1113,0.004999442,5.1099746e-06,6.4393856e-07,0.99499476
1114,4.125062e-07,0.002056057,0.9978726,7.0940296e-05
1115,9.88472e-08,0.99999774,9.863321e-07,1.1324596e-06
1116,0.0001704651,1.5207522e-05,4.0541768e-06,0.9998103
1117,3.2552714e-05,0.9991529,0.0008061221,8.3972645e-06
1118,5.8619065e-09,0.99999917,7.8510806e-07,8.051483e-08
1119,0.99147964,0.007057639,0.00096618943,0.0004964528
1120,3.9805676e-05,5.097595e-06,9.318113e-06,0.99994576
1121,4.82088e-09,0.9999821,1.7919374e-05,1.5074427e-08
1122,3.501227e-08,0.999959,4.078198e-05,2.183789e-07
1123,4.5054594e-06,0.99993896,5.5959885e-05,5.4147324e-07
1124,6.671339e-09,0.9999865,1.3439135e-05,2.1298094e-08
1125,1.7267479e-05,5.1721677e-06,0.00049079116,0.9994867
1126,5.0203353e-09,0.9999912,8.753179e-06,9.617686e-08
1127,1.4394747e-06,0.9998938,5.514756e-06,9.924379e-05
1128,7.759411e-09,0.99911815,0.0008732586,8.550102e-06
1129,3.7846756e-10,0.9999907,9.303313e-06,1.2557244e-08
1130,4.4127397e-08,0.9973341,0.0026638918,1.9678705e-06
1131,0.0023255497,0.00065282045,8.7818025e-06,0.99701285
1132,0.0012905708,6.622209e-07,0.9986136,9.518927e-05
1133,4.4531072e-05,9.9313645e-08,0.9999275,2.7841917e-05
1134,3.6490061e-07,0.9999218,7.71411e-05,6.967794e-07
1135,6.517953e-05,0.9964042,0.0034601076,7.052832e-05
1136,1.1956026e-06,0.9986016,0.0013937433,3.4809107e-06
1137,0.0014052378,0.99835914,1.9002768e-05,0.00021658023
1138,2.0538546e-06,4.992657e-07,0.9999882,9.193947e-06
1139,0.99942446,4.832969e-07,0.00043801268,0.00013705138
1140,7.576884e-07,1.869364e-07,0.0009035901,0.99909544
1141,0.9996138,3.0430982e-07,3.606243e-05,0.00034983637
1142,8.097011e-05,5.8692183e-07,0.99990475,1.3664124e-05
1143,0.9992005,1.0129643e-05,2.6854784e-06,0.00078666344
1144,1.6928966e-07,1.7237832e-06,0.99998593,1.2220417e-05
1145,2.5560473e-07,1.2746977e-05,0.9999852,1.8210482e-06
1146,7.93165e-09,1.0355309e-07,0.9999962,3.6458773e-06
1147,0.9932995,3.615756e-05,5.190444e-06,0.00665917
1148,4.1722856e-06,2.5414397e-06,2.5603565e-06,0.9999907
1149,3.0611904e-08,0.9999974,2.5485779e-06,5.1913442e-08
1150,0.005717184,7.965356e-06,4.5235873e-07,0.99427444
1151,0.99713945,0.00010300976,1.6419913e-06,0.0027559325
1152,0.9996904,1.4694066e-07,0.0002519893,5.7492194e-05
1153,0.00019909447,4.6892874e-06,0.99962556,0.00017063836
1154,1.6246959e-07,0.9999994,3.2193256e-07,7.106684e-08
1155,1.13408625e-07,0.99999917,5.285146e-07,2.4690908e-07
1156,0.99986947,1.8581213e-06,0.0001246978,3.9235942e-06
1157,1.9394643e-06,1.8449674e-07,0.9930541,0.0069438103
1158,2.5303681e-08,0.9999993,6.244546e-07,1.1315664e-08
1159,0.00055337185,1.1469668e-06,9.9405e-06,0.9994355
1160,0.0009917844,4.679671e-05,1.0861443e-06,0.9989604
1161,0.0018404389,0.99796766,0.00010755249,8.4360654e-05
1162,2.3186477e-08,0.9997502,0.00024943738,2.8533526e-07
1163,0.99625826,0.0034452886,0.00012897814,0.00016750666
1164,2.5205866e-06,0.9998549,8.886085e-05,5.3654614e-05
1165,1.5643191e-07,0.99999976,5.0379544e-08,2.7175547e-08
1166,4.5025167e-06,2.8817629e-05,0.9999417,2.4949119e-05
1167,2.3794769e-06,0.9996105,0.0003863943,8.018249e-07
1168,0.9998869,1.171864e-07,4.4144844e-08,0.00011296496
1169,1.82663e-05,6.443184e-06,0.0010607087,0.9989146
1170,0.9982495,1.4869205e-06,2.9093466e-05,0.0017198959
1171,0.9955918,2.8321483e-05,8.47274e-07,0.0043789516
1172,0.99167526,3.7079365e-06,3.5916912e-07,0.008320602
1173,0.99979204,8.680384e-08,0.00020676793,1.0978754e-06
1174,0.9990736,4.188218e-05,1.0008596e-06,0.000883422
1175,2.376875e-06,0.0008619537,0.9991347,9.943351e-07
1176,2.841498e-06,0.99957854,0.0004162357,2.4288515e-06
1177,0.99991775,1.6242286e-07,2.5160313e-07,8.178417e-05
1178,1.5265767e-05,1.5295711e-07,4.948939e-07,0.99998415
1179,7.722026e-06,4.9006746e-07,4.2027827e-06,0.9999876
1180,0.010087923,1.0972368e-05,0.9897355,0.00016567425
1181,0.999949,1.1344181e-08,1.1736762e-05,3.92218e-05
1182,1.1400158e-05,3.0429987e-08,0.99998784,7.8561e-07
1183,1.422536e-05,8.907379e-08,0.0029851082,0.9970005
1184,0.0012137339,3.915502e-06,3.8190865e-05,0.99874413
1185,0.9997552,1.7937906e-07,0.00023549194,9.098287e-06
1186,0.0013225568,0.9978124,0.0008237489,4.1296036e-05
1187,0.00053791347,0.99416924,0.004647209,0.00064569345
1188,3.237782e-07,0.9999949,4.131078e-06,6.7254183e-07
1189,1.1727619e-05,0.99996316,1.4760881e-05,1.0388014e-05
1190,0.99885213,3.433955e-06,1.4208896e-05,0.0011301629
1191,4.5247927e-07,0.9999738,2.4895466e-05,8.2728786e-07
1192,1.1687636e-06,1.5582436e-06,0.9999856,1.1721084e-05
1193,3.872866e-08,0.0016548818,0.99834085,4.232184e-06
1194,3.9447661e-07,4.48911e-07,0.9998938,0.00010539088
1195,1.9387796e-09,0.99999964,3.5940016e-07,5.0673057e-09
1196,0.00038063116,7.862903e-06,0.00011269982,0.99949884
1197,1.0022577e-08,0.99999714,2.6351033e-06,2.5517033e-07
1198,0.99845445,0.000102946324,0.001050896,0.0003917052
1199,0.0052305553,1.7999984e-05,0.99472564,2.5845287e-05
1200,7.509617e-07,0.9995141,0.000483936,1.2199429e-06
1201,2.7565258e-10,0.99999917,8.532872e-07,1.3923893e-08
1202,2.0029531e-06,0.99985385,0.00012984918,1.4328111e-05
1203,4.0597112e-07,0.999979,2.0375195e-05,1.4602212e-07
1204,1.1812701e-07,0.9999888,1.0221482e-05,8.7930715e-07
1205,0.9996656,8.054018e-08,0.0001030254,0.00023132065
1206,6.673141e-07,4.69863e-09,0.9999981,1.1952245e-06
1207,1.6116072e-08,0.9996093,0.00038860782,2.0557136e-06
1208,0.0027535309,5.505704e-05,2.1958997e-06,0.9971892
1209,0.00028508547,1.4611673e-07,0.003923896,0.99579084
1210,0.99999845,4.028304e-07,4.6581073e-07,7.3683583e-07
1211,0.9988726,5.0389367e-06,2.4165463e-06,0.0011200025
1212,1.4088926e-05,3.25831e-07,0.0001364337,0.9998491
1213,1.8888593e-07,0.9998568,0.00014211779,8.927434e-07
1214,0.0012328224,1.111915e-05,2.7638413e-07,0.9987558
1215,0.9999949,2.2236677e-09,5.1524653e-06,2.58553e-08
1216,4.851309e-08,5.9145552e-08,0.99999845,1.4623798e-06
1217,0.003165308,2.7741945e-07,2.3103343e-07,0.9968342
1218,0.0003104321,1.3524182e-07,0.9995441,0.00014530415
1219,3.0379825e-09,0.9998834,0.00011640649,1.11064445e-07
1220,0.0007883163,1.5143634e-05,0.00020149809,0.998995
1221,0.9979766,1.5978019e-06,3.0510162e-06,0.002018798
1222,2.406698e-07,6.899891e-06,0.9999901,2.7737817e-06
1223,6.2949845e-09,0.99999416,5.7641305e-06,6.809907e-08
1224,8.577389e-10,0.99999905,8.763993e-07,1.9945242e-08
1225,1.8529164e-07,0.9976647,0.0023320299,3.1115694e-06
1226,0.9982193,1.9804524e-05,3.3142967e-07,0.0017605096
1227,6.5836057e-09,0.999997,2.9988307e-06,5.7185616e-09
1228,0.00043018948,1.610767e-05,0.0002975048,0.9992562
1229,8.175425e-09,0.99993145,6.789453e-05,6.173955e-07
1230,5.027371e-10,0.99999595,4.011122e-06,3.3191916e-09
1231,8.9781435e-07,1.2149471e-07,2.085349e-05,0.9999782
1232,1.8597063e-07,0.99998546,1.4254703e-05,1.06654e-07
1233,5.1230842e-08,0.99948347,0.0005163192,1.586167e-07
1234,1.4435995e-05,3.9009313e-07,8.595126e-07,0.99998426
1235,5.046749e-10,0.9999826,1.7446016e-05,2.7441434e-09
1236,1.9922503e-08,0.999995,4.9633495e-06,3.1742207e-08
1237,9.495545e-05,1.13487085e-05,0.9980101,0.0018836769
1238,8.486019e-05,6.3606035e-07,0.9990835,0.00083100644
1239,9.494021e-06,2.6545175e-07,0.99985456,0.00013568731
1240,0.0010332087,5.890966e-05,2.17962e-05,0.99888605
1241,0.002390784,2.0751917e-05,2.6633183e-05,0.9975618
1242,3.1814884e-10,0.9999999,1.4372918e-07,2.4954043e-09
1243,0.0015846908,9.769511e-05,0.9980305,0.00028706033
1244,0.0011825375,3.424789e-07,3.5598623e-07,0.99881685
1245,4.690585e-05,0.9999447,3.939048e-06,4.455637e-06
1246,2.7947975e-09,0.99977964,0.00022028222,2.751779e-08
1247,0.9999291,6.768235e-08,3.992378e-05,3.087481e-05
1248,2.7182123e-10,0.99999857,1.3865687e-06,1.7800658e-09
1249,1.7359487e-05,2.0268785e-06,6.3238315e-07,0.99998
1250,0.99413425,7.982361e-06,0.0001054752,0.005752307
1251,0.00109494,0.9985757,0.00028168657,4.7724843e-05
1252,0.9982722,9.9488e-07,2.1166236e-06,0.0017246958
1253,0.00014942026,2.4744171e-05,0.00069653976,0.99912935
1254,1.3865186e-06,0.0023385547,0.99764687,1.3235611e-05
1255,1.0728357e-05,0.9992994,0.00068503886,4.767476e-06
1256,0.00023924492,0.9970446,0.0026982005,1.7958451e-05
1257,5.9649824e-10,0.99999964,3.649854e-07,3.702128e-08
1258,0.9953194,1.7487897e-08,0.0045238617,0.00015671462
1259,3.4515295e-05,5.8806745e-07,1.2649031e-06,0.99996364
1260,2.6660135e-07,1.6231279e-07,0.99998367,1.5862499e-05
1261,1.8203167e-06,0.99999356,3.9986535e-06,5.6185667e-07
1262,4.1505805e-07,0.9999958,3.6698134e-06,7.455617e-08
1263,3.0793788e-05,1.4221482e-07,2.6056253e-07,0.99996877
1264,2.0245794e-05,0.0007026637,0.9992015,7.559852e-05
1265,4.0053565e-09,0.99999523,4.8101997e-06,9.380655e-09
1266,1.929437e-06,4.3964718e-08,0.9999734,2.4641464e-05
1267,0.99997807,3.0639385e-06,1.5526257e-05,3.338426e-06
1268,1.4067465e-05,0.0053882,0.99445385,0.00014388456
1269,3.3995105e-09,0.9999956,4.2878723e-06,6.824493e-08
1270,0.99961156,2.3999173e-06,0.00036091905,2.5128058e-05
1271,3.42277e-05,4.880388e-07,3.089892e-07,0.99996495
1272,2.7188728e-06,0.0062243785,0.993755,1.7892407e-05
1273,3.3610496e-07,7.7607183e-07,0.99999285,6.0019765e-06
1274,4.5817953e-05,1.3085978e-05,0.0016556251,0.9982855
1275,0.00030726037,2.0904179e-06,2.412944e-07,0.9996904
1276,3.1228535e-07,2.2305676e-06,0.99997866,1.8767478e-05
1277,5.4681024e-09,0.99999976,2.3893315e-07,2.559176e-08
1278,7.629807e-05,0.99970883,0.00012655061,8.8261855e-05
1279,3.4842273e-05,0.99977666,0.00018327497,5.264532e-06
1280,0.9999362,1.99567e-08,4.694421e-05,1.6838365e-05
1281,3.0687881e-06,0.00012508006,0.999863,8.817891e-06
1282,8.0118355e-08,8.46824e-06,0.9999913,1.8841314e-07
1283,0.00043621258,8.750594e-06,3.1184577e-06,0.99955195
1284,1.6087262e-05,2.0866175e-06,8.163508e-05,0.9999002
1285,0.0037859208,7.928727e-07,3.6438018e-07,0.99621296
1286,0.0030710334,0.99643075,0.00022089269,0.0002772883
1287,6.9975863e-06,1.953265e-06,0.999984,7.0014244e-06
1288,0.9998678,2.7219867e-06,6.451354e-05,6.494002e-05
1289,4.5698535e-08,0.9999864,1.3282449e-05,2.6739448e-07
1290,0.9988427,3.9226186e-05,4.8855316e-05,0.0010691494
1291,6.259853e-10,0.999962,3.7986283e-05,5.981306e-08
1292,3.2844318e-06,0.99996674,2.9321991e-05,7.106049e-07
1293,0.9999982,6.4496253e-10,1.7326187e-06,7.814735e-08
1294,0.0019172663,0.9959794,0.0019870824,0.00011625315
1295,0.9998723,2.6919265e-08,4.7477893e-06,0.00012286459
1296,4.6991486e-06,3.2885893e-07,0.9999887,6.2934587e-06
1297,0.99433255,7.310272e-05,0.0054831877,0.00011117849
1298,2.517616e-08,0.9977514,0.0022477608,8.00859e-07
1299,1.711141e-05,1.727307e-07,0.99997246,1.0285275e-05
1300,0.0019447505,1.008023e-06,0.9979844,6.98098e-05
1301,0.00096544455,0.0005176161,0.99822086,0.00029610988
1302,0.9950014,6.8833964e-05,6.196256e-06,0.0049235546
1303,0.0015870632,3.6825866e-05,8.3206374e-05,0.99829286
1304,0.99764746,3.9592173e-06,1.7525059e-06,0.0023468605
1305,2.0830553e-10,0.9999999,1.1511215e-07,1.4474281e-09
1306,0.0009945076,0.00030846742,0.0012939047,0.9974031
1307,0.99963677,1.9548943e-07,0.00035745453,5.6125705e-06
1308,9.070333e-05,4.8229977e-06,3.4094617e-05,0.9998704
1309,3.3981162e-06,1.8066281e-05,0.9993056,0.0006729596
1310,0.005152157,0.99328953,0.00022829091,0.0013300469
1311,3.2172096e-10,0.99962187,0.00037807232,2.7399915e-08
1312,0.9997974,0.000200451,5.312431e-07,1.6654493e-06
1313,0.00088174694,3.9710638e-05,2.3536502e-05,0.99905497
1314,1.1671213e-08,0.9999938,6.077204e-06,1.5626533e-07
1315,4.3818295e-06,0.00010110862,0.99987876,1.5678426e-05
1316,2.1921414e-06,0.99999464,6.5667666e-07,2.4897754e-06
1317,3.2505717e-08,0.9999695,2.9708426e-05,7.855551e-07
1318,1.0371038e-09,0.9999758,2.413062e-05,2.4373175e-08
1319,9.62866e-07,1.0111642e-08,0.9999981,9.826944e-07
1320,0.9999827,5.3582635e-08,1.4945158e-05,2.313565e-06
1321,0.00036596612,0.000104705156,1.3021978e-05,0.99951637
1322,2.0074414e-05,1.3596544e-07,3.233987e-06,0.9999765
1323,0.993648,6.795089e-07,0.006251405,9.989449e-05
1324,6.974215e-09,0.999998,1.963761e-06,1.8157767e-08
1325,1.9858339e-10,0.99999356,6.3768885e-06,4.5639172e-09
1326,3.706972e-06,3.84293e-07,0.00044635247,0.99954957
1327,3.7103823e-06,0.007067663,0.99291354,1.5140763e-05
1328,4.1854632e-06,1.3673772e-06,0.9999913,3.1034092e-06
1329,2.5782364e-07,0.9999962,2.8921525e-06,6.964605e-07
1330,7.4382522e-09,0.99958724,0.00041271938,9.643975e-08
1331,0.001196784,2.2862629e-07,0.99874735,5.562339e-05
1332,4.564463e-06,0.99998856,4.9584023e-06,1.9355982e-06
1333,2.7852629e-10,1.0,1.8072738e-08,2.8337757e-09
1334,0.99993885,1.9695594e-09,5.0972318e-05,1.0230889e-05
1335,1.0646284e-08,0.9998418,0.00015806803,7.422971e-08
1336,0.99936205,4.476096e-08,0.00057069276,6.724426e-05
1337,0.00089909544,7.838737e-05,4.1226048e-07,0.9990221
1338,2.569537e-06,1.2366637e-07,0.9999918,5.5062096e-06
1339,1.1267894e-07,0.99999976,5.21615e-08,1.0947381e-07
1340,0.0020264909,0.00032728649,3.2529137e-05,0.99761367
1341,5.2312316e-10,0.9999888,1.12060025e-05,1.50722e-08
1342,2.5200501e-08,0.9993906,0.0006082494,1.0662395e-06
1343,0.9971232,4.0030795e-06,3.0424794e-06,0.0028697131
1344,2.1841836e-06,6.590161e-08,0.99999225,5.505362e-06
1345,5.372598e-07,0.99993575,6.154881e-05,2.184306e-06
1346,5.246919e-07,0.9999651,3.1474687e-05,2.9297134e-06
1347,4.319916e-11,1.0,1.5406625e-08,4.450277e-10
1348,8.304947e-07,0.9999325,6.594951e-05,6.435578e-07
1349,1.519866e-09,0.99981886,0.00018112807,6.527549e-08
1350,0.0002864177,3.152303e-07,0.99860746,0.0011058173
1351,0.00017154908,1.3549143e-06,0.00033839262,0.9994887
1352,1.0383311e-06,3.056943e-06,0.99989045,0.000105456085
1353,4.4637486e-06,1.1942876e-05,0.99990964,7.3907235e-05
1354,3.6397685e-07,0.9999925,6.846003e-06,2.5867953e-07
1355,2.07501e-09,0.9999995,4.2582653e-07,6.4826686e-08
1356,0.0003870901,0.996031,0.003424451,0.00015742471
1357,0.9999976,4.060414e-07,1.8936771e-06,8.052361e-08
1358,1.35484615e-05,2.8517734e-05,0.9999318,2.6129916e-05
1359,0.0001996557,9.530173e-06,1.1157927e-05,0.99977964
1360,5.9120612e-08,2.6664425e-08,0.9999982,1.6455465e-06
1361,5.4401157e-06,0.9999939,1.1789015e-07,5.6286245e-07
1362,1.7331995e-07,0.9999343,6.548998e-05,8.573862e-09
1363,2.0639305e-05,1.3821678e-07,6.0087774e-07,0.99997866
1364,8.7101e-09,0.99998856,1.1254945e-05,1.2761333e-07
1365,5.839754e-11,0.99996376,3.6184178e-05,4.4922035e-09
1366,2.8794723e-08,0.99991953,8.0341946e-05,3.1937482e-08
1367,1.4704548e-08,0.99968874,0.00031122347,6.439856e-08
1368,0.9996841,4.929461e-06,0.0002954374,1.5524845e-05
1369,4.3218318e-10,0.9999927,7.2534826e-06,1.157002e-08
1370,0.00010416166,5.603661e-07,0.9998005,9.476334e-05
1371,7.6212444e-07,3.528472e-07,0.99999845,4.657503e-07
1372,0.0005880068,2.1140384e-05,0.00012526833,0.9992656
1373,0.0008991636,6.45611e-06,1.2399868e-06,0.9990932
1374,2.2819296e-07,0.9998373,0.0001622342,2.6177125e-07
1375,0.99987304,5.781015e-06,4.920045e-06,0.00011623134
1376,0.000111367735,0.99968314,1.3053546e-05,0.00019245483
1377,1.9717243e-09,0.99999607,3.9215693e-06,2.235856e-08
1378,0.0056284196,1.181704e-05,7.758186e-05,0.99428225
1379,8.9699715e-06,4.612108e-06,3.8675885e-06,0.9999826
1380,0.00066316826,6.390588e-06,4.648826e-08,0.9993304
1381,4.420889e-08,0.99984884,0.000150864,2.446697e-07
1382,0.0030556596,1.278539e-05,0.0007241238,0.9962075
1383,8.4059306e-05,2.0417237e-05,4.7864196e-06,0.9998907
1384,0.99529666,3.59011e-07,0.00040659422,0.0042963508
1385,0.99625,3.5501176e-07,2.4332508e-06,0.0037472362
1386,0.00016751561,5.685306e-05,0.0002684664,0.9995072
1387,0.9997588,3.3313465e-06,0.00023592122,2.0151026e-06
1388,0.99970764,0.00027170722,1.9532943e-05,1.1147322e-06
1389,0.99984384,2.5203337e-07,0.0001497796,6.143276e-06
1390,6.914347e-06,0.00060984463,0.9993129,7.033196e-05
1391,0.99853253,2.602383e-06,0.0011643029,0.0003005577
1392,1.9524274e-08,0.9999567,4.3142503e-05,7.905062e-08
1393,1.4864668e-05,0.999964,1.4507372e-05,6.655769e-06
1394,8.1046517e-07,1.0741102e-05,0.9999839,4.5744514e-06
1395,9.168803e-06,5.760342e-07,0.9999838,6.4745536e-06
1396,1.2148647e-06,1.3101132e-07,0.99999654,2.138897e-06
1397,1.7362701e-05,7.867461e-06,0.00040469132,0.9995701
1398,3.5221937e-08,0.99997866,2.0975707e-05,2.958881e-07
1399,2.1033316e-07,0.9999844,1.41460905e-05,1.303396e-06
1400,0.99677294,0.00016342405,7.6184637e-07,0.0030628382
1401,0.0017659001,5.592501e-07,0.99811196,0.000121584875
1402,1.614928e-07,0.0039083445,0.9960407,5.0844836e-05
1403,0.008024507,0.0006201979,0.99114496,0.00021031499
1404,3.1780694e-08,0.9999993,6.597531e-07,4.862123e-08
1405,2.2446502e-09,0.9999987,1.2388804e-06,3.137305e-08
1406,2.997104e-08,0.9999677,3.2254284e-05,1.632412e-08
1407,3.991334e-07,0.99981457,0.00018313692,1.9116699e-06
1408,0.0035535523,5.509114e-06,0.00033083145,0.99611014
1409,5.0398812e-05,7.9345716e-07,3.068448e-06,0.99994576
1410,8.714909e-09,0.9999988,1.84762e-07,9.571885e-07
1411,6.857663e-09,0.99983037,0.0001695287,1.463349e-08
1412,0.99978846,5.131641e-08,1.5932637e-05,0.00019562512
1413,6.5009296e-08,1.2195034e-07,0.9999933,6.4835317e-06
1414,2.310756e-05,4.542253e-06,5.4043237e-05,0.99991834
1415,0.999856,4.9933227e-08,1.2050855e-05,0.00013187756
1416,0.9987949,3.9881346e-07,0.00012455121,0.0010801544
1417,0.00015638278,0.99970514,8.55e-05,5.292034e-05
1418,1.601551e-05,0.99712616,0.002828613,2.9185152e-05
1419,0.9900457,0.000684995,1.3268169e-05,0.009255969
1420,2.3437274e-06,2.236751e-07,0.9999933,4.137408e-06
1421,7.664163e-09,0.99999976,2.0724138e-07,3.4358223e-08
1422,3.668199e-09,0.9999999,8.323994e-08,4.2708887e-08
1423,2.5487694e-08,0.99974936,0.00025045953,1.3415229e-07
1424,0.00031587764,1.7656226e-06,2.9249071e-05,0.9996531
1425,0.00033250957,4.9709097e-06,0.00022822231,0.9994343
1426,4.7393605e-09,0.9999795,2.044294e-05,9.781464e-08
1427,7.191718e-07,0.9997377,0.00024963057,1.1987992e-05
1428,0.99675995,4.556428e-05,1.2385052e-06,0.0031932823
1429,2.125145e-05,5.77308e-07,0.99993634,4.1790216e-05
1430,0.9970395,2.6384545e-05,3.0039664e-06,0.002931081
1431,1.8301819e-06,9.360929e-07,0.99988234,0.00011490479
1432,3.4062336e-06,0.9987205,0.0012748309,1.2544441e-06
1433,3.3783974e-07,9.6549144e-08,0.99999785,1.7199776e-06
1434,0.00026078284,0.99908483,0.00017046882,0.00048395633
1435,8.7470255e-07,3.0827078e-08,3.01837e-06,0.99999607
1436,9.559564e-10,0.9999999,1.6751612e-07,2.05805e-09
1437,0.0004546567,2.9538882e-05,0.99652964,0.0029862006
1438,0.99973804,3.415906e-05,0.00018952215,3.8222235e-05
1439,1.954243e-05,1.7943038e-06,0.99995196,2.6686534e-05
1440,2.9910336e-07,0.99929404,0.0007048175,8.583544e-07
1441,0.99962604,3.622899e-05,2.8576833e-06,0.00033482525
1442,6.630014e-08,0.99999416,5.6980416e-06,3.0642948e-08
1443,3.835923e-06,2.943878e-07,3.175042e-05,0.9999641
1444,3.0231817e-09,0.9999912,8.790414e-06,1.6693056e-08
1445,1.4784103e-05,0.9999453,3.8137045e-05,1.7988664e-06
1446,1.648419e-07,1.3716588e-05,0.9999833,2.7606654e-06
1447,5.164983e-05,4.3097444e-08,5.086949e-05,0.9998975
1448,0.9995821,0.00041733045,5.147512e-07,5.506484e-08
1449,0.000988037,3.1797717e-06,2.2427175e-06,0.99900657
1450,6.3663497e-10,0.99999917,8.134797e-07,2.6318688e-08
1451,2.2891203e-05,0.0020794948,0.9978492,4.8385864e-05
1452,9.982067e-08,0.9989644,0.0010353233,1.2444701e-07
1453,1.0956551e-06,4.471634e-08,4.9320373e-05,0.9999496
1454,4.4239446e-06,1.212754e-06,9.991095e-07,0.9999933
1455,2.6428513e-06,2.451206e-06,6.3470516e-08,0.9999949
1456,8.1093526e-10,0.999998,2.0626924e-06,1.8140078e-08
1457,0.0033256116,7.799675e-06,6.252012e-07,0.996666
1458,2.6033566e-09,1.0,3.3624925e-08,4.1279504e-09
1459,1.8735968e-09,0.99999976,1.3981285e-07,9.045955e-08
1460,3.8752552e-07,0.999648,0.00035086676,7.235719e-07
1461,9.285334e-09,0.99751735,0.0024821952,5.1072726e-07
1462,0.0026421966,3.609163e-06,0.99483985,0.0025143607
1463,0.0070602023,7.995325e-06,0.992851,8.085164e-05
1464,0.00040925288,1.903553e-05,4.403686e-06,0.99956733
1465,0.9916222,0.00025474382,2.0436607e-06,0.008121091
1466,0.99947196,1.2193157e-06,5.9389603e-08,0.00052677636
1467,0.0026445105,1.3627197e-06,0.00016065738,0.9971935
1468,1.2947034e-07,0.999992,7.695447e-06,1.2911755e-07
1469,4.9807354e-06,1.5838696e-05,0.9999211,5.8108842e-05
1470,0.00013554955,0.99939597,0.00046707343,1.3484428e-06
1471,1.5824592e-09,0.9999945,5.429499e-06,1.460349e-08
1472,0.99849224,2.6251325e-06,0.0011591486,0.00034603095
1473,2.1695894e-07,0.9999815,1.8022347e-05,2.5625275e-07
1474,1.6102852e-07,0.9999993,4.8111616e-07,1.18382225e-07
1475,2.5011173e-06,8.110184e-06,3.527588e-06,0.9999858
1476,4.2139163e-09,0.9999186,8.122367e-05,1.7072834e-07
1477,1.9501336e-07,5.2070806e-07,0.99999845,7.925309e-07
1478,0.99997556,1.8503852e-06,2.1577984e-05,9.707828e-07
1479,2.1440044e-05,0.99941623,5.901944e-07,0.0005617517
1480,1.1171682e-05,0.9950122,0.004722561,0.0002540678
1481,4.5011334e-06,0.9995859,0.00040284634,6.7155715e-06
1482,0.005111689,9.848491e-05,5.0068382e-05,0.99473983
1483,4.4439798e-08,0.9999982,1.4912679e-06,2.2294063e-07
1484,0.99970895,1.4538916e-05,2.612388e-08,0.00027641596
1485,0.0002533912,1.2119154e-06,0.9996927,5.2715775e-05
1486,0.00021572378,9.037885e-07,0.9995627,0.00022068604
1487,4.602491e-10,0.99999905,9.50898e-07,1.1934106e-09
1488,7.031271e-06,9.559195e-07,0.99996924,2.2821852e-05
1489,7.697872e-06,1.8270147e-07,0.99995804,3.4092922e-05
1490,0.99606836,5.536198e-07,0.0018077175,0.0021233037
1491,4.2160095e-06,2.0442846e-07,0.9999826,1.304175e-05
1492,1.8384362e-05,4.4351526e-07,0.0003714388,0.99960977
1493,1.6666945e-07,0.9998481,0.00015130248,3.905973e-07
1494,0.0013990737,3.34142e-05,2.39041e-06,0.99856514
1495,0.99981433,3.6362454e-08,4.387806e-08,0.00018563877
1496,1.289641e-06,5.0695985e-07,0.99999714,1.05815e-06
1497,3.9405455e-05,1.3164214e-05,8.4774484e-07,0.9999466
1498,2.8640416e-08,0.9999727,2.688978e-05,3.2805053e-07
1499,0.0008993718,1.1476059e-06,3.4352576e-07,0.99909914
1500,0.00011876418,1.2142959e-06,2.6470318e-05,0.9998535
1501,0.99790645,1.44715295e-05,0.00025736773,0.0018217457
1502,1.3113465e-05,9.735768e-07,6.0410483e-05,0.9999255
1503,0.9999602,1.6672247e-07,1.4195237e-05,2.545941e-05
1504,1.5459257e-09,0.9998536,0.00014628794,4.1792354e-08
1505,7.515718e-11,1.0,5.6635262e-08,9.921775e-10
1506,2.656714e-05,4.6520316e-05,0.0008602559,0.99906665
1507,1.9366587e-05,0.9914015,0.008502527,7.656874e-05
1508,3.7147696e-05,3.6052782e-07,1.1645314e-05,0.9999509
1509,0.0123359505,6.2275744e-06,2.5588743e-06,0.9876552
1510,6.5800384e-07,0.99872714,0.0012716524,5.8372297e-07
1511,5.226414e-10,0.9999943,5.728669e-06,1.0579381e-08
1512,8.519716e-07,0.9999839,1.5216953e-05,5.838488e-08
1513,3.595263e-07,0.9994942,0.00050524174,1.659913e-07
1514,6.4442345e-09,0.00022793718,0.9997719,1.493165e-07
1515,1.0792365e-06,1.5029017e-09,0.99999833,5.9751295e-07
1516,0.9996724,3.159961e-06,1.2873553e-05,0.00031153703
1517,2.9020764e-10,0.99995995,4.007183e-05,3.8040433e-09
1518,0.003568464,7.7630146e-05,1.6810051e-07,0.99635375
1519,0.99964774,9.199218e-08,9.998382e-09,0.0003521155
1520,1.0171508e-05,1.7868696e-06,6.7033245e-05,0.99992096
1521,0.008099703,2.9831185e-06,5.108072e-07,0.9918968
1522,7.344836e-11,0.99999976,2.5334782e-07,7.0396875e-09
1523,0.0018281436,1.0593195e-05,0.0014188082,0.9967424
1524,0.9968265,5.0163027e-07,2.3608787e-07,0.0031727136
1525,2.0354482e-06,0.0011533233,0.99884003,4.665492e-06
1526,8.5188525e-08,0.9999975,2.4233389e-06,1.4931437e-08
1527,3.2208007e-09,0.9998462,0.00015369365,7.716937e-08
1528,0.99989593,2.6834011e-06,9.997413e-05,1.3489797e-06
1529,0.99657565,2.7878932e-05,5.090937e-07,0.003395904
1530,3.7006586e-05,1.3632234e-06,2.0104824e-05,0.99994147
1531,0.99965596,2.5587564e-05,0.00031694886,1.525132e-06
1532,6.810694e-05,1.9435918e-06,0.99986124,6.872725e-05
1533,0.0023151406,5.623348e-06,7.647132e-06,0.99767154
1534,0.0014061107,0.9983498,0.00022247477,2.1685046e-05
1535,1.3295706e-09,1.0,1.7534347e-08,1.8610781e-09
1536,0.00010336167,2.38271e-06,0.9908442,0.009050064
1537,8.736005e-06,3.225532e-06,0.9999069,8.112301e-05
1538,2.7384773e-05,1.322184e-07,2.1795682e-05,0.99995065
1539,0.9999759,4.186854e-09,1.6343384e-08,2.4110313e-05
1540,1.2769034e-09,0.99999666,3.313443e-06,6.9857617e-09
1541,5.2721816e-07,5.3852386e-07,0.9989209,0.0010779963
1542,6.3425346e-06,0.00844858,0.99091303,0.0006319911
1543,0.99963105,8.851181e-07,1.5835066e-07,0.0003679233
1544,1.3943483e-08,0.9999994,3.086079e-07,2.47465e-07
1545,5.069555e-06,0.99998224,5.6094955e-06,7.0914184e-06
1546,4.8492047e-11,0.99999917,8.7014917e-07,1.5698252e-09
1547,0.007569602,1.6505006e-05,1.2545795e-06,0.9924126
1548,0.99943966,8.687236e-06,3.6489673e-06,0.00054793473
1549,5.5372147e-06,9.864541e-07,0.99972934,0.00026417797
1550,3.5319925e-05,0.004494832,0.9953105,0.00015934376
1551,6.082835e-06,2.5957402e-07,0.99974316,0.00025049786
1552,0.00040277184,7.686397e-07,0.99921286,0.00038355612
1553,0.9990662,4.12541e-05,6.921093e-07,0.00089192565
1554,1.49614e-08,6.750903e-05,0.99993074,1.777756e-06
1555,4.31448e-06,3.094455e-06,0.99992657,6.606048e-05
1556,0.9973182,1.3104792e-05,7.038412e-06,0.0026616196
1557,0.00015812415,7.471226e-06,0.99981457,1.980859e-05
1558,4.3056776e-08,9.437545e-08,0.99999857,1.3144116e-06
1559,4.217758e-06,1.5185992e-05,0.9998498,0.00013072524
1560,0.0001275153,4.2263244e-05,0.9998203,1.0010523e-05
1561,0.0010641728,1.5439313e-05,5.513618e-07,0.99891984
1562,0.9997428,0.00014770844,0.00010589176,3.549476e-06
1563,8.951927e-06,4.2244454e-07,2.2787457e-05,0.9999678
1564,1.3728101e-09,0.99999654,3.445501e-06,3.6290366e-08
1565,1.1984666e-08,0.9999938,6.059836e-06,1.7053321e-07
1566,1.9178166e-05,5.551635e-07,0.9991116,0.0008686953
1567,0.0017551372,6.563217e-06,4.9564755e-05,0.9981887
1568,0.0009371081,0.00094322924,1.12385205e-05,0.9981084
1569,0.9951244,8.160668e-06,0.00049327733,0.0043742335
1570,2.4472255e-10,0.9999863,1.3661928e-05,7.3069337e-09
1571,0.00024106617,0.0046680737,0.9949767,0.00011411565
1572,2.0841033e-09,0.9999225,7.7454155e-05,1.1648476e-08
1573,2.746438e-07,0.99999535,4.391435e-06,2.183582e-08
1574,7.428741e-05,1.8269254e-06,9.240942e-07,0.999923
1575,3.4725616e-08,0.9991371,0.0008621621,7.058949e-07
1576,0.9995604,6.7247727e-09,2.7431042e-06,0.00043677428
1577,8.7639746e-05,0.00035961863,0.00035285205,0.9991999
1578,0.0005456038,2.0380608e-06,3.4490045e-06,0.99944896
1579,1.4415016e-06,1.7699591e-07,2.4119794e-05,0.99997425
1580,9.127664e-07,0.9998704,0.00011547487,1.31250035e-05
1581,0.00011809105,0.9998373,1.0817557e-05,3.3828717e-05
1582,0.00023558398,1.5300711e-07,0.99798596,0.0017782846
1583,3.4269246e-07,0.9998153,0.00018417214,2.4924063e-07
1584,0.998511,0.00078263966,0.00064149796,6.481678e-05
1585,1.451786e-07,4.872193e-09,0.9997112,0.00028856235
1586,0.0012335369,1.3985904e-06,1.2099123e-05,0.99875295
1587,0.99913776,2.0665893e-05,9.160465e-07,0.0008406589
1588,0.006896156,1.3182678e-05,8.195223e-08,0.99309057
1589,8.180351e-07,0.0048529934,0.99494946,0.00019670543
1590,0.0005549621,1.021698e-06,0.99901617,0.00042786
1591,0.9961932,1.1429904e-05,0.00026405996,0.00353137
1592,0.0037399845,6.788023e-05,4.9590326e-06,0.99618715
1593,7.9588693e-07,3.462874e-06,4.980277e-05,0.9999459
1594,7.742898e-07,0.9988752,0.0010828794,4.1127714e-05
1595,9.035159e-09,0.9999944,5.185159e-06,3.7681863e-07
1596,7.244702e-09,0.9998006,0.00019938321,4.466238e-08
1597,0.9911431,4.8934146e-07,1.9783198e-07,0.008856215
1598,2.7227402e-06,1.1074312e-05,0.9999567,2.9501041e-05
1599,1.8074819e-07,0.99999547,3.8996677e-06,4.3119738e-07
1600,0.99821234,0.00035639855,3.5004452e-06,0.0014278338
1601,8.022635e-08,0.9999746,2.5079478e-05,2.4527617e-07
1602,0.00067221175,9.2780695e-08,2.722403e-05,0.9993005
1603,0.0009404098,1.0252315e-05,0.00078581186,0.99826354
1604,0.00031807387,6.172306e-06,4.0286045e-07,0.9996754
1605,0.00025507147,8.214987e-07,0.996414,0.0033300954
1606,8.687576e-10,0.99998045,1.9541943e-05,4.6881027e-08
1607,3.665602e-07,0.9998561,0.00014348279,1.592113e-08
1608,0.00027242184,1.6270882e-06,0.0020648837,0.9976611
1609,3.294646e-08,0.99948525,0.00051337975,1.2993444e-06
1610,0.0002304773,1.5320817e-06,2.4534938e-07,0.9997677
1611,0.0008086995,2.0510051e-06,2.612445e-06,0.9991866
1612,7.0982173e-07,0.9999263,7.279684e-05,1.7614819e-07
1613,0.9998735,1.422824e-07,0.0001254791,8.110746e-07
1614,0.999995,5.784394e-08,4.7984877e-06,1.6710649e-07
1615,3.2420104e-08,0.9998938,0.00010610358,9.107457e-08
1616,1.0452849e-05,2.9618707e-07,0.9999863,2.9949458e-06
1617,5.310823e-07,0.9999839,1.2683226e-05,2.9238065e-06
1618,1.2323359e-06,0.9999721,5.119531e-06,2.15317e-05
1619,0.99977297,3.1923162e-05,3.783114e-07,0.00019479163
1620,4.5101893e-05,2.6778545e-07,0.9998815,7.309549e-05
1621,2.0089687e-06,0.99999464,2.4661158e-06,9.4009255e-07
1622,1.2663577e-10,0.99999726,2.7832348e-06,1.7183279e-09
1623,1.0691974e-09,0.99999547,4.4646767e-06,1.6946275e-08
1624,3.0827818e-09,0.9999291,7.0866576e-05,1.2446214e-08
1625,1.8454588e-07,0.9999423,4.5667446e-05,1.1834196e-05
1626,0.9999949,9.4986257e-07,2.548941e-06,1.6456949e-06
1627,1.3705393e-07,0.9999937,6.138346e-06,6.242686e-08
1628,0.0031060253,9.5335316e-05,0.9963805,0.0004181063
1629,3.3413548e-06,2.057496e-07,0.99996996,2.650963e-05
1630,1.793866e-07,0.9999937,5.8125725e-06,3.246293e-07
1631,0.00015870467,0.0018491102,0.9979584,3.3725883e-05
1632,0.00079979544,3.6535191e-06,3.5977582e-06,0.999193
1633,0.999548,1.1750575e-07,3.1234353e-07,0.00045152797
1634,0.9999701,2.2556235e-06,2.6535887e-05,1.1773707e-06
1635,0.00041478252,3.2805692e-05,1.7413361e-06,0.99955064
1636,5.78544e-10,0.9999975,2.5448232e-06,5.1527116e-09
1637,5.535272e-06,8.513545e-05,0.99976,0.00014931282
1638,0.99992645,2.3173862e-07,6.355192e-05,9.704432e-06
1639,0.0018984727,5.688296e-05,2.184751e-06,0.99804246
1640,3.878498e-08,0.99999857,1.4264416e-06,6.9743926e-09
1641,3.5084376e-08,0.9999945,5.3088106e-06,1.9647892e-07
1642,0.99993646,6.178898e-05,1.2188626e-06,5.662942e-07
1643,6.635415e-05,4.1955976e-05,7.077712e-05,0.9998209
1644,0.99984384,1.30223485e-08,0.00014524073,1.0884e-05
1645,1.223856e-07,2.562125e-07,0.9999989,7.150971e-07
1646,2.021214e-09,1.0,6.1509686e-09,1.2099853e-09
1647,2.1463823e-07,1.03514e-07,0.0019717521,0.99802786
1648,5.574942e-06,1.4985691e-06,0.999987,5.8692053e-06
1649,0.9997018,5.839714e-08,4.579096e-06,0.00029358637
1650,3.2040261e-06,0.9997327,0.0002555089,8.595394e-06
1651,1.6786869e-08,0.99999535,4.224e-06,4.6675288e-07
1652,3.523501e-08,0.9999988,1.1431075e-06,6.507044e-08
1653,0.9999181,2.2262939e-05,1.8309467e-05,4.1306135e-05
1654,4.976046e-08,0.9997603,0.00023952691,1.306159e-07
1655,2.7036538e-06,3.3084943e-06,0.99996495,2.9048922e-05
1656,3.1842087e-09,0.99984884,0.00015107333,5.0149534e-08
1657,0.99949145,7.561967e-07,6.248331e-07,0.0005071423
1658,1.1956986e-06,0.99997306,2.3753115e-05,1.936761e-06
1659,0.0027424863,5.6710296e-06,0.99608165,0.0011702223
1660,2.7242896e-07,7.293988e-08,0.99999785,1.8137916e-06
1661,0.9999583,3.0041201e-05,1.1379107e-05,3.131689e-07
1662,1.4817345e-08,0.99999845,1.4733196e-06,2.1740803e-08
1663,0.9978961,3.694406e-07,1.8111208e-06,0.0021016735
1664,0.99857974,0.000103772094,0.00016063066,0.0011558346
1665,2.5165778e-06,0.99879706,0.0011959126,4.475708e-06
1666,0.9999757,1.9573761e-07,2.3366216e-05,7.6194726e-07
1667,2.2746801e-06,1.4592731e-06,4.926473e-05,0.99994695
1668,0.9999609,1.0152623e-08,3.702428e-05,2.0815426e-06
1669,2.2907416e-05,0.9960898,0.0038792395,8.080635e-06
1670,1.1180033e-06,1.5958668e-07,0.9999962,2.4995431e-06
1671,6.2690397e-06,2.2352448e-07,8.640263e-05,0.99990714
1672,0.9970919,1.5250652e-06,0.002375811,0.00053071935
1673,4.172154e-05,9.603451e-06,0.0004209792,0.9995277
1674,2.007404e-07,0.999772,0.00022757925,2.3229533e-07
1675,7.5139224e-07,0.9991301,0.00085626374,1.2964613e-05
1676,4.1632917e-05,0.0040360284,0.9958496,7.275563e-05
1677,1.2104605e-06,4.288738e-06,0.9999553,3.91736e-05
1678,1.091667e-05,6.996163e-08,0.9999504,3.8651317e-05
1679,8.209145e-10,0.9999987,1.3310705e-06,2.1268233e-08
1680,0.00019875522,2.0665793e-06,3.1871573e-07,0.99979883
1681,0.0001469223,6.004757e-07,0.00012838228,0.9997241
1682,0.0019235072,0.9979838,4.676724e-05,4.5840072e-05
1683,1.0263997e-09,0.9999999,1.6327023e-07,1.6825178e-09
1684,0.0008527602,1.1554185e-05,0.00026923904,0.99886644
1685,0.9999838,1.2051785e-07,1.2969313e-08,1.6069345e-05
1686,0.0018408874,1.3159357e-06,6.5526583e-06,0.99815124
1687,0.0014988248,2.6628397e-05,0.003696754,0.9947778
1688,1.629703e-08,0.99999845,1.5261405e-06,3.033335e-09
1689,5.0527554e-08,0.99996173,3.819358e-05,1.7523513e-08
1690,0.9985682,4.983868e-06,0.0014187426,8.043037e-06
1691,0.9994117,0.0004575799,2.7825112e-05,0.00010293766
1692,0.00019123463,1.467754e-07,8.402516e-07,0.9998078
1693,0.0028740666,5.4601996e-06,6.238096e-07,0.9971199
1694,4.06211e-05,5.7847203e-05,0.99944633,0.00045519904
1695,0.999972,2.7342168e-05,1.2933373e-07,4.905204e-07
1696,9.333671e-09,0.9999999,6.707182e-08,1.0704883e-08
1697,3.2959157e-08,0.9999963,3.1488955e-06,5.567473e-07
1698,0.0015449729,0.00031116616,0.00030600734,0.99783784
1699,0.99976104,1.4859071e-05,8.297938e-06,0.0002157602
1700,0.0001031053,6.206634e-06,8.977951e-08,0.99989057
1701,0.00249918,0.000110199806,6.584662e-05,0.9973247
1702,2.3686778e-06,5.9903317e-07,3.9743736e-06,0.9999931
1703,0.00017228925,3.1510017e-06,7.2269773e-07,0.99982387
1704,2.3791733e-08,0.99970704,0.00029290246,4.1477655e-08
1705,0.0023855327,7.241329e-07,3.167074e-05,0.9975821
1706,0.014134576,8.7492305e-07,2.7352942e-06,0.9858618
1707,0.9999987,3.3588516e-09,1.2009243e-06,7.925201e-08
1708,7.2776865e-09,0.9999486,5.1227056e-05,8.9644246e-08
1709,1.2082825e-05,5.1299485e-06,6.3386443e-07,0.9999821
1710,0.99993384,8.475444e-08,4.0041486e-05,2.6002916e-05
1711,0.9999896,9.36898e-09,1.0212147e-05,1.385333e-07
1712,2.404131e-09,0.99999964,2.9409128e-07,3.365539e-08
1713,0.99990666,8.683032e-05,8.728853e-07,5.652433e-06
1714,0.0059450115,0.00014090326,5.9957137e-07,0.9939135
1715,1.2194123e-08,0.9996637,0.0003361644,7.961645e-08
1716,6.0749706e-05,0.9992798,0.0005796294,7.984043e-05
1717,2.3082735e-05,7.232801e-06,0.0004146388,0.99955505
1718,0.0005436041,0.00038076402,4.4715074e-07,0.9990752
1719,1.3267345e-05,1.130829e-06,0.0029407227,0.99704486
1720,9.77182e-09,0.9999434,5.6559278e-05,8.030161e-08
1721,1.3407337e-07,0.9999658,3.279704e-05,1.2250374e-06
1722,3.1914217e-06,6.408757e-06,0.9999795,1.0939197e-05
1723,4.773691e-07,0.9998442,0.00015366066,1.6027061e-06
1724,0.99996054,8.3731123e-07,3.1990048e-09,3.8621605e-05
1725,4.6267278e-08,2.8652394e-07,0.9999993,4.295495e-07
1726,0.9962955,3.18094e-05,3.5773851e-07,0.0036722687
1727,0.9999471,4.0295937e-08,4.3343003e-05,9.542338e-06
1728,3.1781013e-08,0.9999865,1.3378853e-05,5.4515037e-09
1729,5.1381983e-05,2.6235055e-06,6.996051e-07,0.9999453
1730,4.3980206e-09,0.9999999,5.474294e-08,7.213919e-09
1731,0.99602675,3.0859628e-06,8.7803693e-07,0.0039693085
1732,0.9976306,1.2426947e-05,1.7880413e-06,0.0023552033
1733,1.8169685e-11,0.9999956,4.4635576e-06,1.5421044e-09
1734,0.9982622,5.6072906e-08,0.001055224,0.0006825511
1735,8.0545576e-08,0.99998796,1.1437173e-05,4.6366293e-07
1736,0.9952997,0.00014510278,5.301179e-06,0.004549884
1737,8.967725e-07,5.491161e-08,7.044828e-06,0.999992
1738,3.0543656e-10,0.9999999,7.293669e-08,1.7229729e-09
1739,2.4906546e-08,0.99994814,4.8761376e-05,3.0354845e-06
1740,3.9033247e-07,5.6151866e-06,0.99999106,2.8845188e-06
1741,0.999956,1.6576324e-07,1.7147892e-06,4.212596e-05
1742,0.00037454462,1.4951004e-06,1.9186898e-05,0.99960476
1743,4.91118e-05,1.9280271e-06,0.00064543786,0.99930346
1744,0.99898106,1.0040325e-06,7.6652907e-07,0.0010171304
1745,5.537052e-06,2.990691e-07,7.177234e-06,0.999987
1746,0.00010232912,2.382871e-05,3.4529357e-08,0.99987376
1747,0.9982412,7.0814446e-07,2.1128943e-07,0.0017579485
1748,0.00025111611,5.5376386e-06,2.2289703e-06,0.99974114
1749,2.1969875e-07,0.9999784,2.124586e-05,1.1675225e-07
1750,0.0024311806,1.6019227e-05,4.128659e-06,0.99754864
1751,0.99639493,4.331445e-06,0.0029019967,0.0006987755
1752,1.3756836e-05,2.256678e-06,0.0023759732,0.99760795
1753,3.5911246e-05,9.7889286e-05,0.9998253,4.0948107e-05
1754,0.99990547,5.420373e-09,8.6382715e-05,8.14834e-06
1755,0.00021406927,1.5490297e-06,0.999736,4.8321068e-05
1756,2.4388972e-05,6.520068e-06,3.5503956e-05,0.9999336
1757,0.9999143,4.895621e-07,2.0633412e-05,6.463342e-05
1758,0.9939108,2.8474362e-05,3.4180477e-05,0.0060265223
1759,5.4097513e-09,0.9999677,3.2284504e-05,4.5971223e-08
1760,5.488355e-07,1.5639191e-08,0.9999982,1.2322882e-06
1761,0.99998677,8.00746e-08,1.1748247e-05,1.4094595e-06
1762,2.456769e-06,6.397061e-07,0.9999815,1.5399726e-05
1763,2.242584e-07,0.9998264,0.00017257186,8.029425e-07
1764,0.9992373,3.953354e-07,0.00066427427,9.8079276e-05
1765,0.9993911,4.124723e-08,2.631424e-07,0.00060854503
1766,5.1597226e-06,0.9999442,3.812431e-05,1.249846e-05
1767,7.528501e-07,0.0049629295,0.99502265,1.36510425e-05
1768,1.8227236e-06,2.1745393e-06,9.71162e-07,0.999995
1769,3.3490808e-06,2.2552817e-07,0.99992394,7.248679e-05
1770,1.6223625e-05,0.99894506,0.0009986834,4.0027993e-05
1771,5.442728e-07,0.0011897039,0.9987929,1.6813658e-05
1772,0.9993364,0.00028247543,0.00019902589,0.00018207
1773,3.380105e-05,2.659588e-07,0.9998441,0.00012182876
1774,0.0021303783,7.960835e-06,0.99364364,0.0042180545
1775,0.9999963,4.8084594e-09,2.7462352e-06,8.8955323e-07
1776,3.0323708e-05,0.9987143,0.0012545788,8.120921e-07
1777,0.0004372153,0.9995316,2.8119292e-05,3.0949793e-06
1778,1.7894637e-08,0.9999956,4.329237e-06,5.1270877e-08
1779,1.2064455e-06,2.2717005e-07,0.99999654,2.0114032e-06
1780,6.693521e-07,0.9999548,3.961426e-05,4.930739e-06
1781,4.901708e-07,6.180979e-08,0.99999154,7.944479e-06
1782,1.1046023e-08,0.99999833,1.5901421e-06,2.1926448e-08
1783,0.9971616,0.00020834107,1.045366e-06,0.0026289965
1784,4.6833853e-10,0.999997,2.9725636e-06,7.774714e-09
1785,0.0003438586,3.5027195e-05,0.9974486,0.0021724876
1786,0.0016932929,2.6764035e-05,0.00011557284,0.99816436
1787,1.138339e-05,3.1511147e-06,5.042077e-05,0.99993503
1788,1.9077006e-06,2.450285e-05,0.99994946,2.414785e-05
1789,4.0687656e-08,1.8406314e-06,0.99999666,1.4332569e-06
1790,1.2018502e-09,0.9999659,3.4076384e-05,1.1732555e-08
1791,8.371706e-06,9.197104e-05,0.9998474,5.2215746e-05
1792,1.2817557e-07,0.0030874268,0.9969098,2.717762e-06
1793,0.99996126,3.1385437e-06,8.108155e-07,3.4837674e-05
1794,0.9990422,0.00094551605,1.16542105e-05,5.964432e-07
1795,4.1790136e-05,2.2844029e-07,6.534574e-07,0.9999573
1796,8.11007e-07,6.053569e-07,0.99998474,1.3806243e-05
1797,1.3197663e-07,0.9954177,0.004580384,1.781739e-06
1798,0.00015768352,8.651021e-05,5.2327005e-06,0.99975055
1799,0.00024951302,3.5081428e-06,2.5496129e-06,0.9997445
1800,0.9966434,2.4532728e-08,0.0033464127,1.0135925e-05
1801,0.9992894,8.902372e-08,0.0006660935,4.439058e-05
1802,0.99992824,4.7726036e-07,6.8890404e-05,2.3741418e-06
1803,0.000116362084,9.6994526e-08,5.924013e-08,0.9998834
1804,0.996912,0.00214454,0.0009101604,3.3281125e-05
1805,0.99979156,5.929825e-07,8.431132e-05,0.00012352737
1806,0.9918663,0.00022295419,1.1611305e-06,0.007909545
1807,4.0488707e-08,0.9996861,0.00031386712,3.1044657e-08
1808,8.2984375e-09,0.9999982,1.8150554e-06,1.822321e-08
1809,0.0004924809,0.9992055,0.00019732656,0.000104675484
1810,2.1518697e-05,0.9999403,3.2298616e-05,5.9078584e-06
1811,1.4672274e-07,0.99972063,0.00027861694,6.188721e-07
1812,0.9999807,3.0563191e-07,1.5636292e-08,1.9036537e-05
1813,0.00023890054,2.3120643e-05,1.7367717e-07,0.9997378
1814,2.5882666e-05,1.164625e-06,0.9998172,0.00015575922
1815,1.2060157e-05,2.3840166e-06,2.5746558e-06,0.99998295
1816,6.9847624e-06,4.7058765e-07,1.2528866e-06,0.9999913
1817,1.8061899e-09,0.9998203,0.00017969322,5.3151545e-08
1818,1.1828116e-07,0.9998337,0.00016563182,5.437167e-07
1819,0.0007416436,1.2742162e-06,0.9992487,8.36706e-06
1820,0.9999918,1.9810608e-07,7.1709323e-06,8.581472e-07
1821,0.00021968855,8.8854847e-07,0.00086497114,0.9989145
1822,4.388168e-07,0.0006206463,0.9993643,1.4633597e-05
1823,7.3175534e-07,0.9999498,4.8377886e-05,1.0843248e-06
1824,0.00081986183,5.1111565e-06,0.9947306,0.0044444315
1825,3.6009272e-08,0.99995875,4.091957e-05,3.0817154e-07
1826,1.24985e-05,0.9996432,0.00029318113,5.1055118e-05
1827,7.2714945e-05,2.4602152e-06,2.5964464e-06,0.9999223
1828,6.0990405e-05,2.480562e-06,0.0011698606,0.99876666
1829,6.9084303e-09,0.9999963,3.6212505e-06,1.0067273e-07
1830,0.9999963,6.554704e-10,2.618385e-06,1.0313192e-06
1831,9.628889e-05,8.365559e-06,0.0007763978,0.999119
1832,4.435092e-09,0.9999995,4.6698992e-07,4.034804e-08
1833,6.366689e-11,0.9999994,6.5154956e-07,5.16829e-10
1834,0.99992883,6.340159e-08,2.8065551e-06,6.82824e-05
1835,4.9072597e-11,0.9999963,3.6431668e-06,2.143637e-09
1836,4.8187794e-06,1.5003296e-06,2.6273137e-06,0.99999106
1837,3.444964e-08,0.99999046,9.449979e-06,3.581977e-08
1838,3.601377e-09,0.99999833,1.6459925e-06,5.3336105e-08
1839,0.9998541,6.165731e-08,0.00012994099,1.5859838e-05
1840,0.99977785,0.00022121887,9.332783e-07,3.9149484e-08
1841,3.0318039e-05,4.8258096e-07,0.99990165,6.75961e-05
1842,2.0657915e-06,0.9995834,0.00041207045,2.3904959e-06
1843,4.123569e-08,0.999998,1.5277942e-06,4.831096e-07
1844,6.6041923e-07,2.9801456e-07,0.99645245,0.00354665
1845,3.0620026e-10,0.99999845,1.5733517e-06,2.3336314e-08
1846,7.876399e-10,0.9999988,1.1453817e-06,5.7625877e-09
1847,0.0001604771,0.00011104882,5.5021513e-07,0.9997279
1848,1.0738283e-11,1.0,4.1405773e-08,1.0340733e-09
1849,1.6645965e-06,0.99999285,5.0143703e-06,5.1252334e-07
1850,0.9996891,1.563561e-06,0.0003076517,1.7435349e-06
1851,0.99992216,9.238361e-07,5.7885893e-05,1.9007633e-05
1852,1.4105905e-09,0.9999883,1.1708324e-05,4.2002717e-09
1853,0.0048643886,0.00014135112,1.8401566e-06,0.99499243
1854,2.0722139e-08,0.99999917,2.8738594e-07,4.7296965e-07
1855,0.00121031,3.789241e-05,1.5148553e-06,0.9987502
1856,1.4673561e-06,0.002010958,0.9979703,1.7305296e-05
1857,2.611969e-05,6.9474277e-06,0.0032564595,0.9967104
1858,4.045496e-06,2.210248e-07,0.99998605,9.641027e-06
1859,8.185139e-06,3.3635774e-07,0.9999845,7.031016e-06
1860,1.4064846e-09,0.99993813,6.178002e-05,4.2851404e-08
1861,0.99933594,3.1861316e-07,1.09528294e-07,0.0006635968
1862,0.0041003926,0.00027265953,0.9928437,0.0027832456
1863,1.9981844e-10,0.99999475,5.292348e-06,7.0443265e-09
1864,0.005212892,0.0002084119,3.7639493e-06,0.9945749
1865,9.582345e-07,1.0392252e-07,7.313484e-07,0.9999982
1866,6.273538e-08,4.5017696e-06,0.9999932,2.207236e-06
1867,0.0030861283,0.0037840442,0.9880434,0.005086431
1868,0.000569115,0.000105926214,5.620995e-07,0.99932444
1869,0.9969555,2.137174e-05,4.3543866e-07,0.0030226344
1870,1.6034202e-08,0.99999785,2.0117052e-06,7.463529e-08
1871,0.99719787,2.8943534e-06,2.614227e-06,0.0027965745
1872,0.99881613,3.8060045e-06,0.0011602286,1.9890984e-05
1873,5.0029698e-08,0.9970222,0.0029754075,2.3356656e-06
1874,5.149888e-07,0.9998528,0.00014009092,6.5381264e-06
1875,1.8949013e-08,0.9999993,5.1276817e-07,1.264382e-07
1876,2.3649836e-05,6.6870016e-05,0.9998423,6.7222965e-05
1877,1.0731312e-05,4.6869846e-07,0.99997413,1.4673602e-05
1878,6.0806316e-10,0.9999989,1.0436132e-06,6.4073076e-09
1879,1.2026888e-07,0.99998343,1.5467518e-05,9.760402e-07
1880,8.888308e-05,1.4283754e-06,0.0005664802,0.9993432
1881,1.4169868e-07,0.9997832,0.00021543313,1.1629218e-06
1882,8.6330487e-10,0.9993187,0.000681159,9.822791e-08
1883,0.0014598169,2.323009e-06,0.9984138,0.00012405284
1884,5.675345e-07,0.9999833,1.6024605e-05,1.1099125e-07
1885,0.999979,9.6054876e-08,2.0691301e-05,1.8828455e-07
1886,3.7502286e-07,0.99999917,3.9028504e-07,1.4767135e-08
1887,1.9334739e-07,0.99999726,2.4916728e-06,5.7513375e-08
1888,4.5498094e-08,0.999987,1.2872668e-05,5.325357e-08
1889,2.4506058e-08,0.999998,1.9713211e-06,3.7042602e-09
1890,1.712225e-07,8.4597144e-07,0.9999831,1.5962887e-05
1891,3.4765185e-07,1.7211885e-07,0.99999833,1.0991885e-06
1892,2.9354892e-06,1.2438217e-06,0.0011275762,0.9988682
1893,9.215639e-10,0.99999976,1.8715201e-07,3.2622505e-10
1894,0.99884784,2.2987084e-05,2.098016e-05,0.0011082274
1895,4.6908525e-07,0.9999255,7.3541254e-05,4.70844e-07
1896,1.2821806e-07,0.9999,9.975378e-05,9.369967e-08
1897,1.1286962e-07,0.99984324,0.0001549558,1.69378e-06
1898,4.2861478e-07,1.6992915e-06,0.99998677,1.115796e-05
1899,9.9354665e-08,0.9999857,1.4148402e-05,9.8859594e-08
1900,1.4938412e-06,0.9999962,1.1892507e-06,1.1785136e-06
1901,0.000412798,0.00019505278,0.9992143,0.0001777918
1902,0.9993048,1.1121203e-06,7.234546e-07,0.00069340854
1903,5.3787383e-09,0.9999862,1.3664519e-05,1.0063043e-07
1904,8.383786e-05,1.660322e-06,4.1006555e-05,0.9998735
1905,9.293737e-09,0.9999943,5.6436634e-06,9.866021e-08
1906,4.2462693e-07,3.8137435e-07,0.99979156,0.00020766759
1907,8.294989e-08,1.7935478e-06,0.9999368,6.130553e-05
1908,1.9458062e-09,0.99999905,9.03111e-07,2.2247429e-08
1909,6.188324e-07,0.99999595,7.5446576e-07,2.6330906e-06
1910,6.054101e-08,0.9999778,2.1982522e-05,9.518845e-08
1911,3.3623026e-06,1.4459552e-08,0.9999845,1.207083e-05
1912,2.173352e-06,3.487672e-07,3.1926713e-06,0.9999943
1913,0.00018969424,0.9997749,9.376777e-06,2.6110198e-05
1914,0.001970262,0.9978345,0.00017044149,2.4749557e-05
1915,0.99404067,1.1707405e-05,0.005724459,0.00022316122
1916,4.9868305e-09,0.9999974,2.6077769e-06,4.8098975e-08
1917,1.87846e-08,0.9999975,2.400045e-06,1.16305394e-07
1918,1.5782292e-05,0.9999614,1.8623079e-05,4.2648594e-06
1919,3.933599e-06,0.9998909,5.6366825e-05,4.8745194e-05
1920,0.0012515436,2.1136786e-05,3.2034625e-06,0.99872404
1921,0.99998295,4.9417665e-08,1.3983731e-05,3.0424126e-06
1922,0.00012201988,1.2288786e-05,0.00088153774,0.99898416
1923,4.4536503e-09,0.9999294,7.05044e-05,1.0624536e-08
1924,3.6878425e-10,0.9999777,2.2242108e-05,2.7734721e-08
1925,0.99843484,0.0015558733,6.6294115e-06,2.681768e-06
1926,2.9612133e-06,3.5390406e-07,0.9863218,0.013674818
1927,3.1083155e-06,1.601083e-08,0.9999354,6.154187e-05
1928,3.8664005e-09,0.9999993,6.864567e-07,1.056687e-08
1929,0.99969184,4.765997e-08,0.0003000919,8.052349e-06
1930,0.003641112,7.496931e-08,0.99630463,5.4221888e-05
1931,0.00089493697,0.002473017,0.9963266,0.00030539415
1932,0.0029154788,0.99707234,8.287785e-06,3.863625e-06
1933,2.3305905e-08,0.9998771,0.00012279746,4.0536165e-08
1934,2.2913438e-10,1.0,4.755687e-08,5.879522e-10
1935,8.821676e-06,0.999597,0.00024969518,0.00014448575
1936,5.2404046e-09,0.9999988,1.123708e-06,4.929867e-09
1937,0.99983764,4.4246185e-08,1.4288716e-05,0.00014805078
1938,3.221376e-06,0.000104323575,0.99988973,2.6991536e-06
1939,0.9998474,1.4563085e-06,0.00014758027,3.581728e-06
1940,2.8534978e-06,0.9999608,3.5262132e-05,1.0701882e-06
1941,0.00061088556,2.796739e-06,0.9988481,0.000538201
1942,0.00014941482,1.9616414e-06,0.9995141,0.0003345401
1943,1.2084002e-06,0.99989784,9.286215e-05,8.0517275e-06
1944,0.0014401156,1.4254861e-06,0.99779165,0.00076678745
1945,5.099517e-07,3.259241e-08,0.9999913,8.1545595e-06
1946,2.5901385e-05,0.9983918,0.0015654857,1.683437e-05
1947,1.3392212e-06,3.5223868e-06,0.00025460435,0.99974054
1948,2.022129e-07,0.99995375,3.6662816e-05,9.333859e-06
1949,0.00230253,4.7816433e-05,1.5698782e-06,0.99764806
1950,8.013907e-06,0.9999647,1.9003945e-05,8.213001e-06
1951,4.549438e-06,0.9986198,0.001375353,3.279096e-07
1952,2.22122e-09,0.99999976,2.008936e-07,7.564971e-08
1953,0.0020048046,0.0037986732,0.9921886,0.002007973
1954,0.00018023998,7.646284e-06,3.411478e-05,0.999778
1955,1.3060863e-08,0.9999989,1.092162e-06,6.2016525e-09
1956,0.000100775535,2.3671673e-06,0.9994603,0.000436642
1957,8.734094e-06,1.7048825e-07,0.99409616,0.005894944
1958,0.0033666082,0.00018173669,5.785734e-06,0.99644583
1959,1.4124315e-06,1.7621197e-06,0.9959037,0.004093183
1960,3.3798345e-10,0.9999993,6.5926815e-07,1.7663064e-08
1961,4.726472e-07,1.692801e-07,0.99998474,1.4639261e-05
1962,4.415566e-06,0.9976169,0.0023674513,1.12859125e-05
1963,0.00012727668,3.357524e-06,0.0049002194,0.9949692
1964,0.9994344,1.2701747e-06,7.3611645e-08,0.000564214
1965,4.47729e-08,0.99999857,1.0761299e-06,3.0129146e-07
1966,6.876339e-05,5.229756e-05,2.7537806e-07,0.99987864
1967,2.6649064e-07,0.9999994,1.7249533e-07,1.5725182e-07
1968,2.9010926e-05,1.2483948e-06,0.0032898276,0.9966799
1969,0.00024040585,3.161371e-06,3.342382e-07,0.99975616
1970,1.132253e-09,0.99999416,5.8297073e-06,4.508093e-08
1971,3.5953867e-09,0.9999702,2.9702014e-05,1.1803946e-07
1972,2.603132e-07,0.9998859,0.00011371846,5.5139814e-08
1973,0.9999832,1.981268e-06,1.2775343e-05,2.0919235e-06
1974,0.99973387,3.2357164e-08,0.00026051237,5.5319088e-06
1975,0.995896,6.550285e-06,9.8721735e-08,0.0040973327
1976,0.9982823,1.1185582e-08,0.0016694,4.834237e-05
1977,4.5526614e-09,1.0,3.179496e-08,4.525416e-09
1978,2.9206976e-05,0.00513627,0.99475336,8.1160135e-05
1979,0.0014188086,0.0061797677,0.0058430634,0.9865584
1980,0.00016968962,2.3483308e-05,0.00025496224,0.99955183
1981,0.00037408894,1.5510035e-05,3.7278062e-07,0.99961
1982,7.708511e-05,2.5657682e-05,0.9995459,0.00035131673
1983,4.3644687e-07,8.574992e-06,0.9999826,8.3901505e-06
1984,4.042024e-06,1.9315817e-08,0.9999933,2.596911e-06
1985,7.0585535e-05,5.6472545e-06,5.749319e-06,0.999918
1986,2.872195e-10,0.9998944,0.0001056396,3.550317e-09
1987,8.350271e-08,0.998398,0.00160153,3.4021198e-07
1988,9.945351e-05,8.005834e-06,0.00023861343,0.99965394
1989,0.9999937,2.2731697e-09,6.124225e-06,1.5253352e-07
1990,2.9152434e-06,0.9999356,5.822896e-05,3.22259e-06
1991,4.180144e-07,0.99991024,8.851121e-05,7.7015386e-07
1992,2.5950543e-08,0.9999944,5.134603e-06,4.374613e-07
1993,4.594715e-08,4.7663183e-05,0.99995124,1.0301916e-06
1994,7.7564355e-09,0.99999297,6.8662625e-06,1.0206523e-07
1995,4.2655774e-06,1.8309611e-06,0.9999876,6.3181446e-06
1996,1.6805095e-10,0.99998856,1.1473318e-05,5.59752e-09
1997,0.00046305475,1.2998363e-05,3.026806e-06,0.9995209
1998,0.99586844,0.0001531996,0.00010879487,0.0038695347
1999,3.6608117e-08,0.9999747,2.5075822e-05,1.3282457e-07
2000,3.5162752e-06,4.170039e-07,0.99998283,1.3229633e-05
2001,1.6355969e-08,0.9999999,1.0593904e-07,2.1899568e-08
2002,0.0017197649,9.1501235e-05,2.9321775e-06,0.9981858
2003,5.873956e-07,0.99965703,0.00034221666,2.1802998e-07
2004,7.269067e-05,5.630605e-05,0.0019940871,0.9978769
2005,1.3899784e-08,1.0,2.5471435e-08,1.3554509e-08
2006,1.3592872e-08,0.9999863,1.1746561e-05,1.919692e-06
2007,3.1848913e-06,0.9989741,0.0010047506,1.7968476e-05
2008,0.99754614,2.959453e-06,4.9828924e-07,0.0024503814
2009,0.9955511,0.0003517099,0.003211302,0.0008859492
2010,0.998667,2.8620581e-05,4.8644915e-07,0.0013039507
2011,1.1825713e-05,2.4271371e-06,0.0015851152,0.9984006
2012,2.2640713e-06,2.4397606e-05,0.9999223,5.1001814e-05
2013,2.2250743e-10,0.9999907,9.301193e-06,2.3998409e-08
2014,1.9480266e-08,0.99999666,3.2070552e-06,1.1604914e-07
2015,0.9998921,0.00010767699,1.3834862e-08,1.4305951e-07
2016,0.9990037,1.7288984e-07,0.0009939133,2.2491624e-06
2017,2.002189e-05,0.99923944,0.00070558087,3.4922658e-05
2018,3.0552576e-06,3.1381887e-08,0.99999607,9.045719e-07
2019,0.003617314,3.803652e-05,3.708436e-05,0.9963076
2020,0.00019651496,3.5085002e-06,1.309595e-06,0.9997987
2021,0.99819785,2.1269036e-05,2.784043e-06,0.0017781253
2022,0.00016457579,9.918556e-06,6.898155e-06,0.9998186
2023,0.0020333785,3.406153e-06,0.00015076736,0.9978124
2024,1.2878953e-05,8.406923e-07,1.3261969e-06,0.999985
2025,1.5706743e-08,0.99908257,0.00091692986,5.159026e-07
2026,1.3452983e-06,0.99994314,3.8462735e-05,1.709362e-05
2027,2.2715501e-07,9.866167e-07,0.99999523,3.5690946e-06
2028,3.3137124e-09,0.99937016,0.00062930107,5.350818e-07
2029,1.133227e-10,1.0,4.9904973e-09,5.9902155e-10
2030,0.00064443186,0.9992267,5.0937666e-05,7.795637e-05
2031,1.4650357e-07,0.99980694,0.00019268325,3.0040349e-07
2032,2.4668009e-06,1.152074e-06,0.99526155,0.004734763
2033,0.0077607683,1.1328811e-05,0.99196833,0.00025956985
2034,1.0197199e-06,5.463542e-07,0.99999404,4.4002836e-06
2035,0.99980515,3.2684178e-09,0.00019082987,4.025262e-06
2036,0.9910641,0.0004277721,0.00027924837,0.008228936
2037,1.1800725e-08,0.99999726,2.6813912e-06,8.6922725e-08
2038,6.81931e-08,6.7138174e-08,0.99998736,1.252309e-05
2039,4.4554463e-06,2.862258e-06,1.1832877e-06,0.99999154
2040,1.4152336e-07,0.9999833,1.6110293e-05,3.9629856e-07
2041,1.11008704e-08,0.9999808,1.9043258e-05,1.1186234e-07
2042,2.793817e-06,8.452264e-07,0.99997747,1.888383e-05
2043,0.99918073,1.6815166e-05,4.161865e-07,0.0008019987
2044,2.6594364e-09,0.9999999,1.0224129e-07,1.3937687e-09
2045,0.00010459648,1.3412118e-07,0.9998778,1.7398e-05
2046,2.729899e-07,0.9997744,0.00022440027,9.0800535e-07
2047,5.3183383e-05,0.004721206,0.99519926,2.6425736e-05
2048,8.134409e-09,0.9999505,4.9299357e-05,1.2220241e-07
2049,5.6454965e-06,7.929525e-06,4.0251445e-05,0.9999461
2050,1.2782557e-06,0.99944216,0.00055254076,3.9777337e-06
2051,3.6648175e-06,0.0036386033,0.9963553,2.4449016e-06
2052,0.99903893,3.9717662e-08,0.00095603534,5.042848e-06
2053,1.0296795e-05,0.99991703,6.945815e-05,3.2256787e-06
2054,0.0032585387,3.252402e-06,8.7186623e-07,0.9967373
2055,0.99880946,4.0554446e-06,5.463892e-07,0.0011859996
2056,0.9984446,1.9909523e-05,1.1389594e-06,0.0015343187
2057,8.984268e-09,0.9928438,0.007156002,1.3534664e-07
2058,1.7437448e-07,0.9999987,6.325663e-07,4.8887836e-07
2059,0.00032938577,5.972633e-07,0.9995977,7.2337345e-05
2060,7.765391e-05,0.99583024,0.0035882448,0.00050391216
2061,1.2072294e-05,6.011129e-07,2.4597222e-05,0.9999627
2062,1.6665916e-05,7.1219165e-07,2.6632286e-05,0.999956
2063,1.927614e-06,3.0725096e-07,0.9999902,7.566898e-06
2064,7.9021256e-10,0.9999963,3.6925499e-06,1.1995764e-08
2065,3.678799e-08,2.0530753e-07,0.99999917,5.90995e-07
2066,0.9994054,3.420762e-06,0.00028934033,0.0003018101
2067,2.178194e-08,0.999764,0.00023530498,6.390865e-07
2068,0.003984095,8.806374e-06,9.368403e-06,0.9959978
2069,0.99784815,4.2348015e-06,0.0012183691,0.00092919637
2070,0.0001165631,0.999806,1.9771072e-05,5.772438e-05
2071,0.9997937,0.00015655541,4.4543627e-05,5.2087034e-06
2072,6.693647e-07,1.0315212e-06,1.8656732e-06,0.9999964
2073,0.9998331,8.9569454e-08,1.5756942e-07,0.00016659744
2074,5.559439e-05,1.4741848e-06,0.9981553,0.0017876509
2075,3.8978544e-07,4.0337156e-05,0.999959,2.904714e-07
2076,4.6242317e-08,0.99928254,0.000715819,1.5714936e-06
2077,5.3331187e-06,2.6031745e-07,0.992562,0.0074324072
2078,1.0771217e-10,0.9999472,5.2812335e-05,2.1468635e-08
2079,0.00017765975,0.99972993,5.809613e-05,3.4259887e-05
2080,1.8501888e-07,0.9998957,0.000102416205,1.6528246e-06
2081,2.3011426e-08,0.9999995,4.1379366e-07,1.1007506e-08
2082,5.2816606e-05,1.9585861e-05,2.5433578e-06,0.999925
2083,0.9951623,3.8897295e-05,7.7624094e-07,0.004797986
2084,0.00155023,1.5694499e-05,4.6888508e-07,0.99843365
2085,0.0016114301,9.450608e-05,4.2065217e-06,0.9982899
2086,8.251814e-07,1.4246257e-05,0.999984,9.598773e-07
2087,3.6306108e-05,6.639335e-07,0.9999194,4.3578177e-05
2088,7.249015e-07,1.3047518e-06,0.99999225,5.677359e-06
2089,0.0015968696,7.477035e-06,7.484897e-06,0.9983882
2090,1.5585112e-08,5.018659e-08,0.9999981,1.8314169e-06
2091,0.9908133,2.4616576e-05,2.150719e-05,0.009140605
2092,1.0121663e-07,0.999979,1.1006961e-05,9.907838e-06
2093,0.0001664866,5.471994e-06,0.0009183699,0.9989097
2094,0.9999367,9.201337e-07,4.0232186e-05,2.2177148e-05
2095,4.350045e-05,1.0475109e-06,0.99937147,0.000584048
2096,4.869332e-10,0.9999999,7.598855e-08,9.566282e-09
2097,9.063032e-09,0.9999999,7.959235e-08,8.191938e-09
2098,7.2950875e-06,0.999972,2.6710507e-06,1.8063678e-05
2099,0.999954,1.1519939e-08,1.4806581e-05,3.1248233e-05
2100,3.1794436e-05,4.046967e-07,1.0080103e-06,0.99996674
2101,1.2273825e-05,0.00011822114,0.9997749,9.460948e-05
2102,0.00020061411,0.00013146222,0.99906534,0.0006026347
2103,1.1198556e-06,4.0044887e-07,1.6890614e-05,0.99998164
2104,0.00036311056,1.5448994e-05,0.999426,0.00019550014
2105,0.9997365,1.2595528e-07,7.677052e-05,0.00018661155
2106,5.0786275e-10,0.99997365,2.6339776e-05,1.9528404e-08
2107,0.0076286974,8.064917e-06,1.3336061e-06,0.9923619
2108,5.4759294e-08,0.99982363,0.0001758028,5.790415e-07
2109,3.1577787e-08,0.9999896,1.0336269e-05,2.747609e-09
2110,5.5622426e-05,0.0001952744,0.99964297,0.00010611582
2111,1.9365967e-07,7.887951e-06,0.99998987,2.0628074e-06
2112,2.7283453e-09,0.99999774,2.1376945e-06,7.3094746e-08
2113,3.1065213e-09,0.9999994,5.6542865e-07,7.811108e-08
2114,0.0012139888,0.998779,1.6807596e-06,5.342416e-06
2115,2.455564e-09,0.99999225,7.715017e-06,8.7846146e-08
2116,5.782997e-07,5.037361e-09,0.9999989,5.4421537e-07
2117,0.99199134,0.00016474629,0.0006815301,0.007162387
2118,2.1507925e-07,3.7668308e-08,0.9999994,3.432901e-07
2119,0.004283097,5.6767956e-05,3.051763e-05,0.99562967
2120,1.984188e-05,0.99979144,0.00017288476,1.5799757e-05
2121,1.2085953e-07,2.229182e-07,0.9999968,2.8670813e-06
2122,2.5848904e-06,9.962395e-06,0.9998914,9.608857e-05
2123,4.5286184e-09,0.9997975,0.00020243552,2.157205e-08
2124,0.9999702,7.0540195e-06,2.1331525e-05,1.4668962e-06
2125,0.00015707378,0.0015000419,0.99830854,3.438116e-05
2126,0.003949521,0.00031878255,0.00044203104,0.9952897
2127,1.5511377e-07,0.99993384,6.566656e-05,3.645728e-07
