,0,1,2,3
0,0.3103448275862069,0.6724137931034483,0.017241379310344827,0.0
1,0.5276679841897233,0.0,0.023715415019762844,0.44861660079051385
2,0.14736842105263157,0.0,0.005263157894736842,0.8473684210526315
3,0.0989010989010989,0.0,0.03663003663003663,0.8644688644688645
4,0.011790393013100437,0.9759825327510917,0.010917030567685589,0.0013100436681222707
5,0.13990825688073394,0.0,0.07339449541284404,0.786697247706422
6,0.452,0.096,0.448,0.004
7,0.13990825688073394,0.0,0.07339449541284404,0.786697247706422
8,0.03856749311294766,0.8650137741046832,0.09090909090909091,0.005509641873278237
9,0.03856749311294766,0.8650137741046832,0.09090909090909091,0.005509641873278237
10,0.3253424657534247,0.0,0.010273972602739725,0.6643835616438356
11,0.09090909090909091,0.5454545454545454,0.36363636363636365,0.0
12,0.452,0.096,0.448,0.004
13,0.5276679841897233,0.0,0.023715415019762844,0.44861660079051385
14,0.8917525773195877,0.005154639175257732,0.04639175257731959,0.05670103092783505
15,0.03856749311294766,0.8650137741046832,0.09090909090909091,0.005509641873278237
16,0.5276679841897233,0.0,0.023715415019762844,0.44861660079051385
17,0.011790393013100437,0.9759825327510917,0.010917030567685589,0.0013100436681222707
18,0.39574468085106385,0.0,0.03404255319148936,0.5702127659574469
19,0.011790393013100437,0.9759825327510917,0.010917030567685589,0.0013100436681222707
20,0.22971014492753622,0.029710144927536233,0.7289855072463768,0.011594202898550725
21,1.0,0.0,0.0,0.0
22,0.3253424657534247,0.0,0.010273972602739725,0.6643835616438356
23,0.8917525773195877,0.005154639175257732,0.04639175257731959,0.05670103092783505
24,0.08181818181818182,0.004545454545454545,0.004545454545454545,0.9090909090909091
25,0.011790393013100437,0.9759825327510917,0.010917030567685589,0.0013100436681222707
26,0.011790393013100437,0.9759825327510917,0.010917030567685589,0.0013100436681222707
27,0.22971014492753622,0.029710144927536233,0.7289855072463768,0.011594202898550725
28,0.22971014492753622,0.029710144927536233,0.7289855072463768,0.011594202898550725
29,0.3103448275862069,0.6724137931034483,0.017241379310344827,0.0
30,0.1111111111111111,0.3333333333333333,0.5555555555555556,0.0
31,0.03856749311294766,0.8650137741046832,0.09090909090909091,0.005509641873278237
32,0.22971014492753622,0.029710144927536233,0.7289855072463768,0.011594202898550725
33,0.22971014492753622,0.029710144927536233,0.7289855072463768,0.011594202898550725
34,0.03205128205128205,0.11538461538461539,0.8461538461538461,0.00641025641025641
35,0.011790393013100437,0.9759825327510917,0.010917030567685589,0.0013100436681222707
36,0.011790393013100437,0.9759825327510917,0.010917030567685589,0.0013100436681222707
37,0.03856749311294766,0.8650137741046832,0.09090909090909091,0.005509641873278237
38,0.13990825688073394,0.0,0.07339449541284404,0.786697247706422
39,0.6470588235294118,0.0,0.0,0.35294117647058826
40,0.011790393013100437,0.9759825327510917,0.010917030567685589,0.0013100436681222707
41,0.011790393013100437,0.9759825327510917,0.010917030567685589,0.0013100436681222707
42,0.03205128205128205,0.11538461538461539,0.8461538461538461,0.00641025641025641
43,0.011790393013100437,0.9759825327510917,0.010917030567685589,0.0013100436681222707
44,0.22971014492753622,0.029710144927536233,0.7289855072463768,0.011594202898550725
45,0.5862068965517241,0.11494252873563218,0.26436781609195403,0.034482758620689655
46,0.5276679841897233,0.0,0.023715415019762844,0.44861660079051385
47,0.08974358974358974,0.5128205128205128,0.38461538461538464,0.01282051282051282
48,0.011790393013100437,0.9759825327510917,0.010917030567685589,0.0013100436681222707
49,0.075,0.2,0.725,0.0
50,0.03856749311294766,0.8650137741046832,0.09090909090909091,0.005509641873278237
51,0.14736842105263157,0.0,0.005263157894736842,0.8473684210526315
52,0.0989010989010989,0.0,0.03663003663003663,0.8644688644688645
53,0.03856749311294766,0.8650137741046832,0.09090909090909091,0.005509641873278237
54,0.452,0.096,0.448,0.004
55,0.3253424657534247,0.0,0.010273972602739725,0.6643835616438356
56,0.03856749311294766,0.8650137741046832,0.09090909090909091,0.005509641873278237
57,0.22971014492753622,0.029710144927536233,0.7289855072463768,0.011594202898550725
58,0.22971014492753622,0.029710144927536233,0.7289855072463768,0.011594202898550725
59,0.22971014492753622,0.029710144927536233,0.7289855072463768,0.011594202898550725
60,0.3253424657534247,0.0,0.010273972602739725,0.6643835616438356
61,0.011790393013100437,0.9759825327510917,0.010917030567685589,0.0013100436681222707
62,0.39574468085106385,0.0,0.03404255319148936,0.5702127659574469
63,0.03856749311294766,0.8650137741046832,0.09090909090909091,0.005509641873278237
64,0.8917525773195877,0.005154639175257732,0.04639175257731959,0.05670103092783505
65,0.011790393013100437,0.9759825327510917,0.010917030567685589,0.0013100436681222707
66,0.22971014492753622,0.029710144927536233,0.7289855072463768,0.011594202898550725
67,0.011790393013100437,0.9759825327510917,0.010917030567685589,0.0013100436681222707
68,0.011790393013100437,0.9759825327510917,0.010917030567685589,0.0013100436681222707
69,0.5306122448979592,0.4489795918367347,0.0,0.02040816326530612
70,0.3103448275862069,0.6724137931034483,0.017241379310344827,0.0
71,0.011790393013100437,0.9759825327510917,0.010917030567685589,0.0013100436681222707
72,0.017964071856287425,0.8203592814371258,0.16167664670658682,0.0
73,0.5276679841897233,0.0,0.023715415019762844,0.44861660079051385
74,0.13990825688073394,0.0,0.07339449541284404,0.786697247706422
75,0.8,0.2,0.0,0.0
76,0.017964071856287425,0.8203592814371258,0.16167664670658682,0.0
77,0.5276679841897233,0.0,0.023715415019762844,0.44861660079051385
78,0.452,0.096,0.448,0.004
79,0.0989010989010989,0.0,0.03663003663003663,0.8644688644688645
80,0.21052631578947367,0.0,0.0,0.7894736842105263
81,0.452,0.096,0.448,0.004
82,0.452,0.096,0.448,0.004
83,0.011790393013100437,0.9759825327510917,0.010917030567685589,0.0013100436681222707
84,0.3253424657534247,0.0,0.010273972602739725,0.6643835616438356
85,0.011790393013100437,0.9759825327510917,0.010917030567685589,0.0013100436681222707
86,0.14736842105263157,0.0,0.005263157894736842,0.8473684210526315
87,0.011790393013100437,0.9759825327510917,0.010917030567685589,0.0013100436681222707
88,0.017964071856287425,0.8203592814371258,0.16167664670658682,0.0
89,0.011790393013100437,0.9759825327510917,0.010917030567685589,0.0013100436681222707
90,0.011790393013100437,0.9759825327510917,0.010917030567685589,0.0013100436681222707
91,0.13990825688073394,0.0,0.07339449541284404,0.786697247706422
92,0.452,0.096,0.448,0.004
93,0.13990825688073394,0.0,0.07339449541284404,0.786697247706422
94,0.13990825688073394,0.0,0.07339449541284404,0.786697247706422
95,0.011790393013100437,0.9759825327510917,0.010917030567685589,0.0013100436681222707
96,0.011790393013100437,0.9759825327510917,0.010917030567685589,0.0013100436681222707
97,0.6724137931034483,0.008620689655172414,0.2413793103448276,0.07758620689655173
98,0.011790393013100437,0.9759825327510917,0.010917030567685589,0.0013100436681222707
99,0.22971014492753622,0.029710144927536233,0.7289855072463768,0.011594202898550725
100,0.22971014492753622,0.029710144927536233,0.7289855072463768,0.011594202898550725
101,0.8917525773195877,0.005154639175257732,0.04639175257731959,0.05670103092783505
102,0.3072916666666667,0.16145833333333334,0.5130208333333334,0.018229166666666668
103,0.39574468085106385,0.0,0.03404255319148936,0.5702127659574469
104,0.22971014492753622,0.029710144927536233,0.7289855072463768,0.011594202898550725
105,0.011790393013100437,0.9759825327510917,0.010917030567685589,0.0013100436681222707
106,0.075,0.2,0.725,0.0
107,0.011790393013100437,0.9759825327510917,0.010917030567685589,0.0013100436681222707
108,0.3072916666666667,0.16145833333333334,0.5130208333333334,0.018229166666666668
109,0.011790393013100437,0.9759825327510917,0.010917030567685589,0.0013100436681222707
110,0.5276679841897233,0.0,0.023715415019762844,0.44861660079051385
111,0.8917525773195877,0.005154639175257732,0.04639175257731959,0.05670103092783505
112,0.0989010989010989,0.0,0.03663003663003663,0.8644688644688645
113,0.011790393013100437,0.9759825327510917,0.010917030567685589,0.0013100436681222707
114,0.011790393013100437,0.9759825327510917,0.010917030567685589,0.0013100436681222707
115,0.22971014492753622,0.029710144927536233,0.7289855072463768,0.011594202898550725
116,0.13990825688073394,0.0,0.07339449541284404,0.786697247706422
117,0.22971014492753622,0.029710144927536233,0.7289855072463768,0.011594202898550725
118,0.5276679841897233,0.0,0.023715415019762844,0.44861660079051385
119,0.3072916666666667,0.16145833333333334,0.5130208333333334,0.018229166666666668
120,0.22971014492753622,0.029710144927536233,0.7289855072463768,0.011594202898550725
121,0.011790393013100437,0.9759825327510917,0.010917030567685589,0.0013100436681222707
122,0.22971014492753622,0.029710144927536233,0.7289855072463768,0.011594202898550725
123,0.017964071856287425,0.8203592814371258,0.16167664670658682,0.0
124,0.08333333333333333,0.0,0.0,0.9166666666666666
125,0.39574468085106385,0.0,0.03404255319148936,0.5702127659574469
126,0.5276679841897233,0.0,0.023715415019762844,0.44861660079051385
127,0.22971014492753622,0.029710144927536233,0.7289855072463768,0.011594202898550725
128,0.011790393013100437,0.9759825327510917,0.010917030567685589,0.0013100436681222707
129,0.6724137931034483,0.008620689655172414,0.2413793103448276,0.07758620689655173
130,0.011790393013100437,0.9759825327510917,0.010917030567685589,0.0013100436681222707
131,0.22971014492753622,0.029710144927536233,0.7289855072463768,0.011594202898550725
132,0.011790393013100437,0.9759825327510917,0.010917030567685589,0.0013100436681222707
133,0.22971014492753622,0.029710144927536233,0.7289855072463768,0.011594202898550725
134,0.011790393013100437,0.9759825327510917,0.010917030567685589,0.0013100436681222707
135,0.011790393013100437,0.9759825327510917,0.010917030567685589,0.0013100436681222707
136,0.3072916666666667,0.16145833333333334,0.5130208333333334,0.018229166666666668
137,0.22971014492753622,0.029710144927536233,0.7289855072463768,0.011594202898550725
138,0.13990825688073394,0.0,0.07339449541284404,0.786697247706422
139,0.22971014492753622,0.029710144927536233,0.7289855072463768,0.011594202898550725
140,0.5276679841897233,0.0,0.023715415019762844,0.44861660079051385
141,0.011790393013100437,0.9759825327510917,0.010917030567685589,0.0013100436681222707
142,0.03856749311294766,0.8650137741046832,0.09090909090909091,0.005509641873278237
143,0.011790393013100437,0.9759825327510917,0.010917030567685589,0.0013100436681222707
144,0.02631578947368421,0.0,0.10526315789473684,0.868421052631579
145,0.011790393013100437,0.9759825327510917,0.010917030567685589,0.0013100436681222707
146,0.14736842105263157,0.0,0.005263157894736842,0.8473684210526315
147,0.011790393013100437,0.9759825327510917,0.010917030567685589,0.0013100436681222707
148,0.017964071856287425,0.8203592814371258,0.16167664670658682,0.0
149,0.017964071856287425,0.8203592814371258,0.16167664670658682,0.0
150,0.22971014492753622,0.029710144927536233,0.7289855072463768,0.011594202898550725
151,0.22971014492753622,0.029710144927536233,0.7289855072463768,0.011594202898550725
152,0.452,0.096,0.448,0.004
153,0.0,1.0,0.0,0.0
154,0.03205128205128205,0.11538461538461539,0.8461538461538461,0.00641025641025641
155,0.22971014492753622,0.029710144927536233,0.7289855072463768,0.011594202898550725
156,0.5679012345679012,0.0,0.0,0.43209876543209874
157,0.0,0.0,0.0,1.0
158,0.011790393013100437,0.9759825327510917,0.010917030567685589,0.0013100436681222707
159,0.08974358974358974,0.5128205128205128,0.38461538461538464,0.01282051282051282
160,0.011790393013100437,0.9759825327510917,0.010917030567685589,0.0013100436681222707
161,0.011790393013100437,0.9759825327510917,0.010917030567685589,0.0013100436681222707
162,0.011790393013100437,0.9759825327510917,0.010917030567685589,0.0013100436681222707
163,0.0,0.0,0.0,1.0
164,0.03856749311294766,0.8650137741046832,0.09090909090909091,0.005509641873278237
165,0.13990825688073394,0.0,0.07339449541284404,0.786697247706422
166,0.22971014492753622,0.029710144927536233,0.7289855072463768,0.011594202898550725
167,0.6724137931034483,0.008620689655172414,0.2413793103448276,0.07758620689655173
168,0.5276679841897233,0.0,0.023715415019762844,0.44861660079051385
169,0.0989010989010989,0.0,0.03663003663003663,0.8644688644688645
170,0.5276679841897233,0.0,0.023715415019762844,0.44861660079051385
171,0.03856749311294766,0.8650137741046832,0.09090909090909091,0.005509641873278237
172,0.22971014492753622,0.029710144927536233,0.7289855072463768,0.011594202898550725
173,0.5862068965517241,0.11494252873563218,0.26436781609195403,0.034482758620689655
174,0.3072916666666667,0.16145833333333334,0.5130208333333334,0.018229166666666668
175,0.22971014492753622,0.029710144927536233,0.7289855072463768,0.011594202898550725
176,0.011790393013100437,0.9759825327510917,0.010917030567685589,0.0013100436681222707
177,0.011790393013100437,0.9759825327510917,0.010917030567685589,0.0013100436681222707
178,0.011790393013100437,0.9759825327510917,0.010917030567685589,0.0013100436681222707
179,0.8917525773195877,0.005154639175257732,0.04639175257731959,0.05670103092783505
180,0.03205128205128205,0.11538461538461539,0.8461538461538461,0.00641025641025641
181,0.08181818181818182,0.004545454545454545,0.004545454545454545,0.9090909090909091
182,0.452,0.096,0.448,0.004
183,0.3103448275862069,0.6724137931034483,0.017241379310344827,0.0
184,0.08181818181818182,0.004545454545454545,0.004545454545454545,0.9090909090909091
185,0.22971014492753622,0.029710144927536233,0.7289855072463768,0.011594202898550725
186,0.22971014492753622,0.029710144927536233,0.7289855072463768,0.011594202898550725
187,0.13990825688073394,0.0,0.07339449541284404,0.786697247706422
188,0.011790393013100437,0.9759825327510917,0.010917030567685589,0.0013100436681222707
189,0.3253424657534247,0.0,0.010273972602739725,0.6643835616438356
190,0.011790393013100437,0.9759825327510917,0.010917030567685589,0.0013100436681222707
191,0.21052631578947367,0.0,0.0,0.7894736842105263
192,0.3253424657534247,0.0,0.010273972602739725,0.6643835616438356
193,0.011790393013100437,0.9759825327510917,0.010917030567685589,0.0013100436681222707
194,0.011790393013100437,0.9759825327510917,0.010917030567685589,0.0013100436681222707
195,0.5276679841897233,0.0,0.023715415019762844,0.44861660079051385
196,0.22971014492753622,0.029710144927536233,0.7289855072463768,0.011594202898550725
197,0.22971014492753622,0.029710144927536233,0.7289855072463768,0.011594202898550725
198,0.13990825688073394,0.0,0.07339449541284404,0.786697247706422
199,0.3103448275862069,0.6724137931034483,0.017241379310344827,0.0
200,0.011790393013100437,0.9759825327510917,0.010917030567685589,0.0013100436681222707
201,0.3072916666666667,0.16145833333333334,0.5130208333333334,0.018229166666666668
202,0.22971014492753622,0.029710144927536233,0.7289855072463768,0.011594202898550725
203,0.03205128205128205,0.11538461538461539,0.8461538461538461,0.00641025641025641
204,0.03205128205128205,0.11538461538461539,0.8461538461538461,0.00641025641025641
205,0.452,0.096,0.448,0.004
206,0.011790393013100437,0.9759825327510917,0.010917030567685589,0.0013100436681222707
207,0.011790393013100437,0.9759825327510917,0.010917030567685589,0.0013100436681222707
208,0.5306122448979592,0.4489795918367347,0.0,0.02040816326530612
209,0.5276679841897233,0.0,0.023715415019762844,0.44861660079051385
210,0.13990825688073394,0.0,0.07339449541284404,0.786697247706422
211,0.39574468085106385,0.0,0.03404255319148936,0.5702127659574469
212,0.011790393013100437,0.9759825327510917,0.010917030567685589,0.0013100436681222707
213,0.22971014492753622,0.029710144927536233,0.7289855072463768,0.011594202898550725
214,0.5679012345679012,0.0,0.0,0.43209876543209874
215,0.5276679841897233,0.0,0.023715415019762844,0.44861660079051385
216,0.03856749311294766,0.8650137741046832,0.09090909090909091,0.005509641873278237
217,0.3072916666666667,0.16145833333333334,0.5130208333333334,0.018229166666666668
218,0.22971014492753622,0.029710144927536233,0.7289855072463768,0.011594202898550725
219,0.22971014492753622,0.029710144927536233,0.7289855072463768,0.011594202898550725
220,0.22971014492753622,0.029710144927536233,0.7289855072463768,0.011594202898550725
221,0.14736842105263157,0.0,0.005263157894736842,0.8473684210526315
222,0.22971014492753622,0.029710144927536233,0.7289855072463768,0.011594202898550725
223,0.13990825688073394,0.0,0.07339449541284404,0.786697247706422
224,0.5276679841897233,0.0,0.023715415019762844,0.44861660079051385
225,0.21739130434782608,0.0,0.03260869565217391,0.75
226,0.22971014492753622,0.029710144927536233,0.7289855072463768,0.011594202898550725
227,0.22971014492753622,0.029710144927536233,0.7289855072463768,0.011594202898550725
228,0.02631578947368421,0.0,0.10526315789473684,0.868421052631579
229,0.2222222222222222,0.4888888888888889,0.28888888888888886,0.0
230,0.5276679841897233,0.0,0.023715415019762844,0.44861660079051385
231,0.13990825688073394,0.0,0.07339449541284404,0.786697247706422
232,0.8917525773195877,0.005154639175257732,0.04639175257731959,0.05670103092783505
233,0.011790393013100437,0.9759825327510917,0.010917030567685589,0.0013100436681222707
234,0.011790393013100437,0.9759825327510917,0.010917030567685589,0.0013100436681222707
235,0.22971014492753622,0.029710144927536233,0.7289855072463768,0.011594202898550725
236,0.03856749311294766,0.8650137741046832,0.09090909090909091,0.005509641873278237
237,0.011790393013100437,0.9759825327510917,0.010917030567685589,0.0013100436681222707
238,0.03856749311294766,0.8650137741046832,0.09090909090909091,0.005509641873278237
239,0.8917525773195877,0.005154639175257732,0.04639175257731959,0.05670103092783505
240,0.011790393013100437,0.9759825327510917,0.010917030567685589,0.0013100436681222707
241,0.3253424657534247,0.0,0.010273972602739725,0.6643835616438356
242,0.9032258064516129,0.0,0.03225806451612903,0.06451612903225806
243,0.5276679841897233,0.0,0.023715415019762844,0.44861660079051385
244,0.011790393013100437,0.9759825327510917,0.010917030567685589,0.0013100436681222707
245,0.39574468085106385,0.0,0.03404255319148936,0.5702127659574469
246,0.5862068965517241,0.11494252873563218,0.26436781609195403,0.034482758620689655
247,0.5276679841897233,0.0,0.023715415019762844,0.44861660079051385
248,0.5276679841897233,0.0,0.023715415019762844,0.44861660079051385
249,0.011790393013100437,0.9759825327510917,0.010917030567685589,0.0013100436681222707
250,0.22971014492753622,0.029710144927536233,0.7289855072463768,0.011594202898550725
251,0.13990825688073394,0.0,0.07339449541284404,0.786697247706422
252,0.22971014492753622,0.029710144927536233,0.7289855072463768,0.011594202898550725
253,0.5276679841897233,0.0,0.023715415019762844,0.44861660079051385
254,0.011790393013100437,0.9759825327510917,0.010917030567685589,0.0013100436681222707
255,0.22971014492753622,0.029710144927536233,0.7289855072463768,0.011594202898550725
256,0.5862068965517241,0.11494252873563218,0.26436781609195403,0.034482758620689655
257,0.13990825688073394,0.0,0.07339449541284404,0.786697247706422
258,0.13990825688073394,0.0,0.07339449541284404,0.786697247706422
259,0.011790393013100437,0.9759825327510917,0.010917030567685589,0.0013100436681222707
260,0.22971014492753622,0.029710144927536233,0.7289855072463768,0.011594202898550725
261,0.03856749311294766,0.8650137741046832,0.09090909090909091,0.005509641873278237
262,0.011790393013100437,0.9759825327510917,0.010917030567685589,0.0013100436681222707
263,0.3253424657534247,0.0,0.010273972602739725,0.6643835616438356
264,0.3253424657534247,0.0,0.010273972602739725,0.6643835616438356
265,0.011790393013100437,0.9759825327510917,0.010917030567685589,0.0013100436681222707
266,0.011790393013100437,0.9759825327510917,0.010917030567685589,0.0013100436681222707
267,0.39574468085106385,0.0,0.03404255319148936,0.5702127659574469
268,0.22971014492753622,0.029710144927536233,0.7289855072463768,0.011594202898550725
269,0.011790393013100437,0.9759825327510917,0.010917030567685589,0.0013100436681222707
270,0.017964071856287425,0.8203592814371258,0.16167664670658682,0.0
271,0.22971014492753622,0.029710144927536233,0.7289855072463768,0.011594202898550725
272,0.0,1.0,0.0,0.0
273,0.03856749311294766,0.8650137741046832,0.09090909090909091,0.005509641873278237
274,0.011790393013100437,0.9759825327510917,0.010917030567685589,0.0013100436681222707
275,0.452,0.096,0.448,0.004
276,0.03856749311294766,0.8650137741046832,0.09090909090909091,0.005509641873278237
277,0.5276679841897233,0.0,0.023715415019762844,0.44861660079051385
278,0.011790393013100437,0.9759825327510917,0.010917030567685589,0.0013100436681222707
279,0.22971014492753622,0.029710144927536233,0.7289855072463768,0.011594202898550725
280,0.3072916666666667,0.16145833333333334,0.5130208333333334,0.018229166666666668
281,0.22971014492753622,0.029710144927536233,0.7289855072463768,0.011594202898550725
282,0.452,0.096,0.448,0.004
283,0.5276679841897233,0.0,0.023715415019762844,0.44861660079051385
284,0.6724137931034483,0.008620689655172414,0.2413793103448276,0.07758620689655173
285,0.08181818181818182,0.004545454545454545,0.004545454545454545,0.9090909090909091
286,0.03856749311294766,0.8650137741046832,0.09090909090909091,0.005509641873278237
287,0.011790393013100437,0.9759825327510917,0.010917030567685589,0.0013100436681222707
288,0.22971014492753622,0.029710144927536233,0.7289855072463768,0.011594202898550725
289,0.011790393013100437,0.9759825327510917,0.010917030567685589,0.0013100436681222707
290,0.011790393013100437,0.9759825327510917,0.010917030567685589,0.0013100436681222707
291,0.011790393013100437,0.9759825327510917,0.010917030567685589,0.0013100436681222707
292,0.13990825688073394,0.0,0.07339449541284404,0.786697247706422
293,0.0,0.0,0.0,1.0
294,0.14736842105263157,0.0,0.005263157894736842,0.8473684210526315
295,0.03856749311294766,0.8650137741046832,0.09090909090909091,0.005509641873278237
296,0.3072916666666667,0.16145833333333334,0.5130208333333334,0.018229166666666668
297,0.011790393013100437,0.9759825327510917,0.010917030567685589,0.0013100436681222707
298,0.3253424657534247,0.0,0.010273972602739725,0.6643835616438356
299,0.011790393013100437,0.9759825327510917,0.010917030567685589,0.0013100436681222707
300,0.08181818181818182,0.004545454545454545,0.004545454545454545,0.9090909090909091
301,0.3072916666666667,0.16145833333333334,0.5130208333333334,0.018229166666666668
302,0.3072916666666667,0.16145833333333334,0.5130208333333334,0.018229166666666668
303,0.14736842105263157,0.0,0.005263157894736842,0.8473684210526315
304,0.3072916666666667,0.16145833333333334,0.5130208333333334,0.018229166666666668
305,0.22971014492753622,0.029710144927536233,0.7289855072463768,0.011594202898550725
306,0.3103448275862069,0.6724137931034483,0.017241379310344827,0.0
307,0.5276679841897233,0.0,0.023715415019762844,0.44861660079051385
308,0.22971014492753622,0.029710144927536233,0.7289855072463768,0.011594202898550725
309,0.13990825688073394,0.0,0.07339449541284404,0.786697247706422
310,0.3253424657534247,0.0,0.010273972602739725,0.6643835616438356
311,0.5276679841897233,0.0,0.023715415019762844,0.44861660079051385
312,0.08181818181818182,0.004545454545454545,0.004545454545454545,0.9090909090909091
313,0.0989010989010989,0.0,0.03663003663003663,0.8644688644688645
314,0.22971014492753622,0.029710144927536233,0.7289855072463768,0.011594202898550725
315,0.3103448275862069,0.6724137931034483,0.017241379310344827,0.0
316,0.3072916666666667,0.16145833333333334,0.5130208333333334,0.018229166666666668
317,0.5276679841897233,0.0,0.023715415019762844,0.44861660079051385
318,0.3072916666666667,0.16145833333333334,0.5130208333333334,0.018229166666666668
319,0.42105263157894735,0.0,0.15789473684210525,0.42105263157894735
320,0.0,1.0,0.0,0.0
321,0.03205128205128205,0.11538461538461539,0.8461538461538461,0.00641025641025641
322,0.13990825688073394,0.0,0.07339449541284404,0.786697247706422
323,0.452,0.096,0.448,0.004
324,0.03856749311294766,0.8650137741046832,0.09090909090909091,0.005509641873278237
325,0.22971014492753622,0.029710144927536233,0.7289855072463768,0.011594202898550725
326,0.03856749311294766,0.8650137741046832,0.09090909090909091,0.005509641873278237
327,0.5276679841897233,0.0,0.023715415019762844,0.44861660079051385
328,0.3103448275862069,0.6724137931034483,0.017241379310344827,0.0
329,0.6724137931034483,0.008620689655172414,0.2413793103448276,0.07758620689655173
330,0.0,1.0,0.0,0.0
331,0.011790393013100437,0.9759825327510917,0.010917030567685589,0.0013100436681222707
332,0.011790393013100437,0.9759825327510917,0.010917030567685589,0.0013100436681222707
333,0.03856749311294766,0.8650137741046832,0.09090909090909091,0.005509641873278237
334,0.452,0.096,0.448,0.004
335,0.3103448275862069,0.6724137931034483,0.017241379310344827,0.0
336,0.452,0.096,0.448,0.004
337,0.5276679841897233,0.0,0.023715415019762844,0.44861660079051385
338,0.011790393013100437,0.9759825327510917,0.010917030567685589,0.0013100436681222707
339,0.3072916666666667,0.16145833333333334,0.5130208333333334,0.018229166666666668
340,0.14736842105263157,0.0,0.005263157894736842,0.8473684210526315
341,0.9032258064516129,0.0,0.03225806451612903,0.06451612903225806
342,0.0,0.0,0.0,1.0
343,0.011790393013100437,0.9759825327510917,0.010917030567685589,0.0013100436681222707
344,0.08974358974358974,0.5128205128205128,0.38461538461538464,0.01282051282051282
345,0.13990825688073394,0.0,0.07339449541284404,0.786697247706422
346,0.3072916666666667,0.16145833333333334,0.5130208333333334,0.018229166666666668
347,0.5276679841897233,0.0,0.023715415019762844,0.44861660079051385
348,0.011790393013100437,0.9759825327510917,0.010917030567685589,0.0013100436681222707
349,0.22971014492753622,0.029710144927536233,0.7289855072463768,0.011594202898550725
350,0.22971014492753622,0.029710144927536233,0.7289855072463768,0.011594202898550725
351,0.011790393013100437,0.9759825327510917,0.010917030567685589,0.0013100436681222707
352,0.011790393013100437,0.9759825327510917,0.010917030567685589,0.0013100436681222707
353,0.011790393013100437,0.9759825327510917,0.010917030567685589,0.0013100436681222707
354,0.011790393013100437,0.9759825327510917,0.010917030567685589,0.0013100436681222707
355,0.22971014492753622,0.029710144927536233,0.7289855072463768,0.011594202898550725
356,0.22971014492753622,0.029710144927536233,0.7289855072463768,0.011594202898550725
357,0.5276679841897233,0.0,0.023715415019762844,0.44861660079051385
358,0.22971014492753622,0.029710144927536233,0.7289855072463768,0.011594202898550725
359,0.011790393013100437,0.9759825327510917,0.010917030567685589,0.0013100436681222707
360,0.8917525773195877,0.005154639175257732,0.04639175257731959,0.05670103092783505
361,0.03856749311294766,0.8650137741046832,0.09090909090909091,0.005509641873278237
362,0.5276679841897233,0.0,0.023715415019762844,0.44861660079051385
363,0.3103448275862069,0.6724137931034483,0.017241379310344827,0.0
364,0.22971014492753622,0.029710144927536233,0.7289855072463768,0.011594202898550725
365,0.22971014492753622,0.029710144927536233,0.7289855072463768,0.011594202898550725
366,0.03856749311294766,0.8650137741046832,0.09090909090909091,0.005509641873278237
367,0.3253424657534247,0.0,0.010273972602739725,0.6643835616438356
368,0.22971014492753622,0.029710144927536233,0.7289855072463768,0.011594202898550725
369,0.011790393013100437,0.9759825327510917,0.010917030567685589,0.0013100436681222707
370,0.13990825688073394,0.0,0.07339449541284404,0.786697247706422
371,0.3253424657534247,0.0,0.010273972602739725,0.6643835616438356
372,0.011790393013100437,0.9759825327510917,0.010917030567685589,0.0013100436681222707
373,0.452,0.096,0.448,0.004
374,0.452,0.096,0.448,0.004
375,0.22971014492753622,0.029710144927536233,0.7289855072463768,0.011594202898550725
376,0.011790393013100437,0.9759825327510917,0.010917030567685589,0.0013100436681222707
377,0.75,0.25,0.0,0.0
378,0.5276679841897233,0.0,0.023715415019762844,0.44861660079051385
379,0.452,0.096,0.448,0.004
380,0.011790393013100437,0.9759825327510917,0.010917030567685589,0.0013100436681222707
381,0.5679012345679012,0.0,0.0,0.43209876543209874
382,0.5276679841897233,0.0,0.023715415019762844,0.44861660079051385
383,0.22971014492753622,0.029710144927536233,0.7289855072463768,0.011594202898550725
384,0.22971014492753622,0.029710144927536233,0.7289855072463768,0.011594202898550725
385,0.22971014492753622,0.029710144927536233,0.7289855072463768,0.011594202898550725
386,0.011790393013100437,0.9759825327510917,0.010917030567685589,0.0013100436681222707
387,0.3103448275862069,0.6724137931034483,0.017241379310344827,0.0
388,0.452,0.096,0.448,0.004
389,0.011790393013100437,0.9759825327510917,0.010917030567685589,0.0013100436681222707
390,0.22971014492753622,0.029710144927536233,0.7289855072463768,0.011594202898550725
391,0.22971014492753622,0.029710144927536233,0.7289855072463768,0.011594202898550725
392,0.011790393013100437,0.9759825327510917,0.010917030567685589,0.0013100436681222707
393,0.011790393013100437,0.9759825327510917,0.010917030567685589,0.0013100436681222707
394,0.075,0.2,0.725,0.0
395,0.3253424657534247,0.0,0.010273972602739725,0.6643835616438356
396,0.08181818181818182,0.004545454545454545,0.004545454545454545,0.9090909090909091
397,0.0989010989010989,0.0,0.03663003663003663,0.8644688644688645
398,0.011790393013100437,0.9759825327510917,0.010917030567685589,0.0013100436681222707
399,0.3072916666666667,0.16145833333333334,0.5130208333333334,0.018229166666666668
400,0.017964071856287425,0.8203592814371258,0.16167664670658682,0.0
401,0.011790393013100437,0.9759825327510917,0.010917030567685589,0.0013100436681222707
402,0.3253424657534247,0.0,0.010273972602739725,0.6643835616438356
403,0.22971014492753622,0.029710144927536233,0.7289855072463768,0.011594202898550725
404,0.3103448275862069,0.6724137931034483,0.017241379310344827,0.0
405,0.6724137931034483,0.008620689655172414,0.2413793103448276,0.07758620689655173
406,0.22971014492753622,0.029710144927536233,0.7289855072463768,0.011594202898550725
407,0.08181818181818182,0.004545454545454545,0.004545454545454545,0.9090909090909091
408,0.011790393013100437,0.9759825327510917,0.010917030567685589,0.0013100436681222707
409,0.22971014492753622,0.029710144927536233,0.7289855072463768,0.011594202898550725
410,0.3072916666666667,0.16145833333333334,0.5130208333333334,0.018229166666666668
411,0.5276679841897233,0.0,0.023715415019762844,0.44861660079051385
412,0.22971014492753622,0.029710144927536233,0.7289855072463768,0.011594202898550725
413,0.011790393013100437,0.9759825327510917,0.010917030567685589,0.0013100436681222707
414,0.6724137931034483,0.008620689655172414,0.2413793103448276,0.07758620689655173
415,0.017964071856287425,0.8203592814371258,0.16167664670658682,0.0
416,0.22971014492753622,0.029710144927536233,0.7289855072463768,0.011594202898550725
417,0.011790393013100437,0.9759825327510917,0.010917030567685589,0.0013100436681222707
418,0.08974358974358974,0.5128205128205128,0.38461538461538464,0.01282051282051282
419,0.011790393013100437,0.9759825327510917,0.010917030567685589,0.0013100436681222707
420,0.03856749311294766,0.8650137741046832,0.09090909090909091,0.005509641873278237
421,0.011790393013100437,0.9759825327510917,0.010917030567685589,0.0013100436681222707
422,0.5276679841897233,0.0,0.023715415019762844,0.44861660079051385
423,0.14736842105263157,0.0,0.005263157894736842,0.8473684210526315
424,0.22971014492753622,0.029710144927536233,0.7289855072463768,0.011594202898550725
425,0.011790393013100437,0.9759825327510917,0.010917030567685589,0.0013100436681222707
426,0.22971014492753622,0.029710144927536233,0.7289855072463768,0.011594202898550725
427,0.011790393013100437,0.9759825327510917,0.010917030567685589,0.0013100436681222707
428,0.03856749311294766,0.8650137741046832,0.09090909090909091,0.005509641873278237
429,0.011790393013100437,0.9759825327510917,0.010917030567685589,0.0013100436681222707
430,0.3072916666666667,0.16145833333333334,0.5130208333333334,0.018229166666666668
431,0.13990825688073394,0.0,0.07339449541284404,0.786697247706422
432,0.011790393013100437,0.9759825327510917,0.010917030567685589,0.0013100436681222707
433,0.22971014492753622,0.029710144927536233,0.7289855072463768,0.011594202898550725
434,0.13990825688073394,0.0,0.07339449541284404,0.786697247706422
435,0.0989010989010989,0.0,0.03663003663003663,0.8644688644688645
436,0.22971014492753622,0.029710144927536233,0.7289855072463768,0.011594202898550725
437,0.011790393013100437,0.9759825327510917,0.010917030567685589,0.0013100436681222707
438,0.22971014492753622,0.029710144927536233,0.7289855072463768,0.011594202898550725
439,0.0,0.0,0.8888888888888888,0.1111111111111111
440,0.011790393013100437,0.9759825327510917,0.010917030567685589,0.0013100436681222707
441,0.22971014492753622,0.029710144927536233,0.7289855072463768,0.011594202898550725
442,0.011790393013100437,0.9759825327510917,0.010917030567685589,0.0013100436681222707
443,0.22971014492753622,0.029710144927536233,0.7289855072463768,0.011594202898550725
444,0.017964071856287425,0.8203592814371258,0.16167664670658682,0.0
445,0.39574468085106385,0.0,0.03404255319148936,0.5702127659574469
446,0.21739130434782608,0.0,0.03260869565217391,0.75
447,0.011790393013100437,0.9759825327510917,0.010917030567685589,0.0013100436681222707
448,0.13990825688073394,0.0,0.07339449541284404,0.786697247706422
449,0.9032258064516129,0.0,0.03225806451612903,0.06451612903225806
450,0.011790393013100437,0.9759825327510917,0.010917030567685589,0.0013100436681222707
451,0.14736842105263157,0.0,0.005263157894736842,0.8473684210526315
452,0.011790393013100437,0.9759825327510917,0.010917030567685589,0.0013100436681222707
453,0.3103448275862069,0.6724137931034483,0.017241379310344827,0.0
454,0.011790393013100437,0.9759825327510917,0.010917030567685589,0.0013100436681222707
455,0.017964071856287425,0.8203592814371258,0.16167664670658682,0.0
456,0.0,0.896551724137931,0.10344827586206896,0.0
457,0.011790393013100437,0.9759825327510917,0.010917030567685589,0.0013100436681222707
458,0.017964071856287425,0.8203592814371258,0.16167664670658682,0.0
459,0.3072916666666667,0.16145833333333334,0.5130208333333334,0.018229166666666668
460,0.5276679841897233,0.0,0.023715415019762844,0.44861660079051385
461,0.5276679841897233,0.0,0.023715415019762844,0.44861660079051385
462,0.3103448275862069,0.6724137931034483,0.017241379310344827,0.0
463,0.0989010989010989,0.0,0.03663003663003663,0.8644688644688645
464,0.8917525773195877,0.005154639175257732,0.04639175257731959,0.05670103092783505
465,0.011790393013100437,0.9759825327510917,0.010917030567685589,0.0013100436681222707
466,0.3253424657534247,0.0,0.010273972602739725,0.6643835616438356
467,0.0989010989010989,0.0,0.03663003663003663,0.8644688644688645
468,0.3072916666666667,0.16145833333333334,0.5130208333333334,0.018229166666666668
469,0.011790393013100437,0.9759825327510917,0.010917030567685589,0.0013100436681222707
470,0.9032258064516129,0.0,0.03225806451612903,0.06451612903225806
471,0.22971014492753622,0.029710144927536233,0.7289855072463768,0.011594202898550725
472,0.452,0.096,0.448,0.004
473,0.011790393013100437,0.9759825327510917,0.010917030567685589,0.0013100436681222707
474,0.22971014492753622,0.029710144927536233,0.7289855072463768,0.011594202898550725
475,1.0,0.0,0.0,0.0
476,0.22971014492753622,0.029710144927536233,0.7289855072463768,0.011594202898550725
477,0.011790393013100437,0.9759825327510917,0.010917030567685589,0.0013100436681222707
478,0.011790393013100437,0.9759825327510917,0.010917030567685589,0.0013100436681222707
479,0.5862068965517241,0.11494252873563218,0.26436781609195403,0.034482758620689655
480,0.08181818181818182,0.004545454545454545,0.004545454545454545,0.9090909090909091
481,0.13990825688073394,0.0,0.07339449541284404,0.786697247706422
482,0.3253424657534247,0.0,0.010273972602739725,0.6643835616438356
483,0.03856749311294766,0.8650137741046832,0.09090909090909091,0.005509641873278237
484,0.8917525773195877,0.005154639175257732,0.04639175257731959,0.05670103092783505
485,0.22971014492753622,0.029710144927536233,0.7289855072463768,0.011594202898550725
486,0.39574468085106385,0.0,0.03404255319148936,0.5702127659574469
487,0.3253424657534247,0.0,0.010273972602739725,0.6643835616438356
488,0.13990825688073394,0.0,0.07339449541284404,0.786697247706422
489,0.3253424657534247,0.0,0.010273972602739725,0.6643835616438356
490,0.0,0.0,0.0,1.0
491,0.22971014492753622,0.029710144927536233,0.7289855072463768,0.011594202898550725
492,0.3072916666666667,0.16145833333333334,0.5130208333333334,0.018229166666666668
493,0.22971014492753622,0.029710144927536233,0.7289855072463768,0.011594202898550725
494,0.21739130434782608,0.0,0.03260869565217391,0.75
495,0.08974358974358974,0.5128205128205128,0.38461538461538464,0.01282051282051282
496,0.39574468085106385,0.0,0.03404255319148936,0.5702127659574469
497,0.011790393013100437,0.9759825327510917,0.010917030567685589,0.0013100436681222707
498,0.011790393013100437,0.9759825327510917,0.010917030567685589,0.0013100436681222707
499,0.21052631578947367,0.0,0.0,0.7894736842105263
500,0.0,1.0,0.0,0.0
501,0.14736842105263157,0.0,0.005263157894736842,0.8473684210526315
502,0.011790393013100437,0.9759825327510917,0.010917030567685589,0.0013100436681222707
503,0.39574468085106385,0.0,0.03404255319148936,0.5702127659574469
504,0.13990825688073394,0.0,0.07339449541284404,0.786697247706422
505,0.3253424657534247,0.0,0.010273972602739725,0.6643835616438356
506,0.22971014492753622,0.029710144927536233,0.7289855072463768,0.011594202898550725
507,0.5862068965517241,0.11494252873563218,0.26436781609195403,0.034482758620689655
508,0.39574468085106385,0.0,0.03404255319148936,0.5702127659574469
509,0.011790393013100437,0.9759825327510917,0.010917030567685589,0.0013100436681222707
510,0.011790393013100437,0.9759825327510917,0.010917030567685589,0.0013100436681222707
511,0.011790393013100437,0.9759825327510917,0.010917030567685589,0.0013100436681222707
512,0.21052631578947367,0.0,0.0,0.7894736842105263
513,0.452,0.096,0.448,0.004
514,0.22971014492753622,0.029710144927536233,0.7289855072463768,0.011594202898550725
515,0.22971014492753622,0.029710144927536233,0.7289855072463768,0.011594202898550725
516,0.011790393013100437,0.9759825327510917,0.010917030567685589,0.0013100436681222707
517,0.03205128205128205,0.11538461538461539,0.8461538461538461,0.00641025641025641
518,0.08181818181818182,0.004545454545454545,0.004545454545454545,0.9090909090909091
519,0.5276679841897233,0.0,0.023715415019762844,0.44861660079051385
520,0.3253424657534247,0.0,0.010273972602739725,0.6643835616438356
521,0.011790393013100437,0.9759825327510917,0.010917030567685589,0.0013100436681222707
522,0.3253424657534247,0.0,0.010273972602739725,0.6643835616438356
523,0.3072916666666667,0.16145833333333334,0.5130208333333334,0.018229166666666668
524,0.22971014492753622,0.029710144927536233,0.7289855072463768,0.011594202898550725
525,0.5679012345679012,0.0,0.0,0.43209876543209874
526,0.011790393013100437,0.9759825327510917,0.010917030567685589,0.0013100436681222707
527,0.6724137931034483,0.008620689655172414,0.2413793103448276,0.07758620689655173
528,0.22971014492753622,0.029710144927536233,0.7289855072463768,0.011594202898550725
529,0.5276679841897233,0.0,0.023715415019762844,0.44861660079051385
530,0.011790393013100437,0.9759825327510917,0.010917030567685589,0.0013100436681222707
531,0.5276679841897233,0.0,0.023715415019762844,0.44861660079051385
532,0.03205128205128205,0.11538461538461539,0.8461538461538461,0.00641025641025641
533,0.5679012345679012,0.0,0.0,0.43209876543209874
534,0.011790393013100437,0.9759825327510917,0.010917030567685589,0.0013100436681222707
535,0.22971014492753622,0.029710144927536233,0.7289855072463768,0.011594202898550725
536,0.03856749311294766,0.8650137741046832,0.09090909090909091,0.005509641873278237
537,0.011790393013100437,0.9759825327510917,0.010917030567685589,0.0013100436681222707
538,0.13990825688073394,0.0,0.07339449541284404,0.786697247706422
539,0.011790393013100437,0.9759825327510917,0.010917030567685589,0.0013100436681222707
540,0.22971014492753622,0.029710144927536233,0.7289855072463768,0.011594202898550725
541,0.011790393013100437,0.9759825327510917,0.010917030567685589,0.0013100436681222707
542,0.3253424657534247,0.0,0.010273972602739725,0.6643835616438356
543,0.08974358974358974,0.5128205128205128,0.38461538461538464,0.01282051282051282
544,0.3072916666666667,0.16145833333333334,0.5130208333333334,0.018229166666666668
545,0.21739130434782608,0.0,0.03260869565217391,0.75
546,0.13990825688073394,0.0,0.07339449541284404,0.786697247706422
547,0.22971014492753622,0.029710144927536233,0.7289855072463768,0.011594202898550725
548,0.011790393013100437,0.9759825327510917,0.010917030567685589,0.0013100436681222707
549,0.03856749311294766,0.8650137741046832,0.09090909090909091,0.005509641873278237
550,0.13990825688073394,0.0,0.07339449541284404,0.786697247706422
551,0.8917525773195877,0.005154639175257732,0.04639175257731959,0.05670103092783505
552,0.0989010989010989,0.0,0.03663003663003663,0.8644688644688645
553,0.3253424657534247,0.0,0.010273972602739725,0.6643835616438356
554,0.011790393013100437,0.9759825327510917,0.010917030567685589,0.0013100436681222707
555,0.011790393013100437,0.9759825327510917,0.010917030567685589,0.0013100436681222707
556,0.22971014492753622,0.029710144927536233,0.7289855072463768,0.011594202898550725
557,0.22971014492753622,0.029710144927536233,0.7289855072463768,0.011594202898550725
558,0.22971014492753622,0.029710144927536233,0.7289855072463768,0.011594202898550725
559,0.22971014492753622,0.029710144927536233,0.7289855072463768,0.011594202898550725
560,0.6470588235294118,0.0,0.0,0.35294117647058826
561,0.5276679841897233,0.0,0.023715415019762844,0.44861660079051385
562,0.22971014492753622,0.029710144927536233,0.7289855072463768,0.011594202898550725
563,0.21052631578947367,0.0,0.0,0.7894736842105263
564,0.22971014492753622,0.029710144927536233,0.7289855072463768,0.011594202898550725
565,0.3103448275862069,0.6724137931034483,0.017241379310344827,0.0
566,0.011790393013100437,0.9759825327510917,0.010917030567685589,0.0013100436681222707
567,0.13990825688073394,0.0,0.07339449541284404,0.786697247706422
568,0.011790393013100437,0.9759825327510917,0.010917030567685589,0.0013100436681222707
569,0.22971014492753622,0.029710144927536233,0.7289855072463768,0.011594202898550725
570,0.011790393013100437,0.9759825327510917,0.010917030567685589,0.0013100436681222707
571,0.011790393013100437,0.9759825327510917,0.010917030567685589,0.0013100436681222707
572,0.452,0.096,0.448,0.004
573,0.3253424657534247,0.0,0.010273972602739725,0.6643835616438356
574,0.03856749311294766,0.8650137741046832,0.09090909090909091,0.005509641873278237
575,0.011790393013100437,0.9759825327510917,0.010917030567685589,0.0013100436681222707
576,0.08181818181818182,0.004545454545454545,0.004545454545454545,0.9090909090909091
577,0.011790393013100437,0.9759825327510917,0.010917030567685589,0.0013100436681222707
578,0.011790393013100437,0.9759825327510917,0.010917030567685589,0.0013100436681222707
579,0.03205128205128205,0.11538461538461539,0.8461538461538461,0.00641025641025641
580,0.3072916666666667,0.16145833333333334,0.5130208333333334,0.018229166666666668
581,0.011790393013100437,0.9759825327510917,0.010917030567685589,0.0013100436681222707
582,0.22971014492753622,0.029710144927536233,0.7289855072463768,0.011594202898550725
583,0.017964071856287425,0.8203592814371258,0.16167664670658682,0.0
584,0.011790393013100437,0.9759825327510917,0.010917030567685589,0.0013100436681222707
585,0.011790393013100437,0.9759825327510917,0.010917030567685589,0.0013100436681222707
586,0.011790393013100437,0.9759825327510917,0.010917030567685589,0.0013100436681222707
587,0.011790393013100437,0.9759825327510917,0.010917030567685589,0.0013100436681222707
588,0.011790393013100437,0.9759825327510917,0.010917030567685589,0.0013100436681222707
589,0.452,0.096,0.448,0.004
590,0.3253424657534247,0.0,0.010273972602739725,0.6643835616438356
591,0.13990825688073394,0.0,0.07339449541284404,0.786697247706422
592,0.02631578947368421,0.0,0.10526315789473684,0.868421052631579
593,0.011790393013100437,0.9759825327510917,0.010917030567685589,0.0013100436681222707
594,0.22971014492753622,0.029710144927536233,0.7289855072463768,0.011594202898550725
595,0.011790393013100437,0.9759825327510917,0.010917030567685589,0.0013100436681222707
596,0.011790393013100437,0.9759825327510917,0.010917030567685589,0.0013100436681222707
597,0.39574468085106385,0.0,0.03404255319148936,0.5702127659574469
598,0.5306122448979592,0.4489795918367347,0.0,0.02040816326530612
599,0.452,0.096,0.448,0.004
600,0.5276679841897233,0.0,0.023715415019762844,0.44861660079051385
601,0.011790393013100437,0.9759825327510917,0.010917030567685589,0.0013100436681222707
602,0.22971014492753622,0.029710144927536233,0.7289855072463768,0.011594202898550725
603,0.3072916666666667,0.16145833333333334,0.5130208333333334,0.018229166666666668
604,0.39574468085106385,0.0,0.03404255319148936,0.5702127659574469
605,0.21739130434782608,0.0,0.03260869565217391,0.75
606,0.011790393013100437,0.9759825327510917,0.010917030567685589,0.0013100436681222707
607,0.011790393013100437,0.9759825327510917,0.010917030567685589,0.0013100436681222707
608,0.452,0.096,0.448,0.004
609,0.14736842105263157,0.0,0.005263157894736842,0.8473684210526315
610,0.08181818181818182,0.004545454545454545,0.004545454545454545,0.9090909090909091
611,0.22971014492753622,0.029710144927536233,0.7289855072463768,0.011594202898550725
612,0.08181818181818182,0.004545454545454545,0.004545454545454545,0.9090909090909091
613,0.3253424657534247,0.0,0.010273972602739725,0.6643835616438356
614,0.011790393013100437,0.9759825327510917,0.010917030567685589,0.0013100436681222707
615,0.5276679841897233,0.0,0.023715415019762844,0.44861660079051385
616,0.14736842105263157,0.0,0.005263157894736842,0.8473684210526315
617,0.011790393013100437,0.9759825327510917,0.010917030567685589,0.0013100436681222707
618,0.03856749311294766,0.8650137741046832,0.09090909090909091,0.005509641873278237
619,0.017964071856287425,0.8203592814371258,0.16167664670658682,0.0
620,0.017964071856287425,0.8203592814371258,0.16167664670658682,0.0
621,0.011790393013100437,0.9759825327510917,0.010917030567685589,0.0013100436681222707
622,0.22971014492753622,0.029710144927536233,0.7289855072463768,0.011594202898550725
623,0.011790393013100437,0.9759825327510917,0.010917030567685589,0.0013100436681222707
624,0.03856749311294766,0.8650137741046832,0.09090909090909091,0.005509641873278237
625,0.011790393013100437,0.9759825327510917,0.010917030567685589,0.0013100436681222707
626,0.3072916666666667,0.16145833333333334,0.5130208333333334,0.018229166666666668
627,0.22971014492753622,0.029710144927536233,0.7289855072463768,0.011594202898550725
628,0.08181818181818182,0.004545454545454545,0.004545454545454545,0.9090909090909091
629,0.8917525773195877,0.005154639175257732,0.04639175257731959,0.05670103092783505
630,0.21739130434782608,0.0,0.03260869565217391,0.75
631,0.03856749311294766,0.8650137741046832,0.09090909090909091,0.005509641873278237
632,0.3253424657534247,0.0,0.010273972602739725,0.6643835616438356
633,0.22971014492753622,0.029710144927536233,0.7289855072463768,0.011594202898550725
634,0.8917525773195877,0.005154639175257732,0.04639175257731959,0.05670103092783505
635,0.22971014492753622,0.029710144927536233,0.7289855072463768,0.011594202898550725
636,0.017964071856287425,0.8203592814371258,0.16167664670658682,0.0
637,0.5679012345679012,0.0,0.0,0.43209876543209874
638,0.7142857142857143,0.0,0.0,0.2857142857142857
639,0.011790393013100437,0.9759825327510917,0.010917030567685589,0.0013100436681222707
640,0.2222222222222222,0.4888888888888889,0.28888888888888886,0.0
641,0.03205128205128205,0.11538461538461539,0.8461538461538461,0.00641025641025641
642,0.5276679841897233,0.0,0.023715415019762844,0.44861660079051385
643,0.39574468085106385,0.0,0.03404255319148936,0.5702127659574469
644,0.011790393013100437,0.9759825327510917,0.010917030567685589,0.0013100436681222707
645,0.5679012345679012,0.0,0.0,0.43209876543209874
646,0.011790393013100437,0.9759825327510917,0.010917030567685589,0.0013100436681222707
647,0.13990825688073394,0.0,0.07339449541284404,0.786697247706422
648,0.011790393013100437,0.9759825327510917,0.010917030567685589,0.0013100436681222707
649,0.011790393013100437,0.9759825327510917,0.010917030567685589,0.0013100436681222707
650,0.5276679841897233,0.0,0.023715415019762844,0.44861660079051385
651,0.011790393013100437,0.9759825327510917,0.010917030567685589,0.0013100436681222707
652,0.011790393013100437,0.9759825327510917,0.010917030567685589,0.0013100436681222707
653,0.03856749311294766,0.8650137741046832,0.09090909090909091,0.005509641873278237
654,0.5276679841897233,0.0,0.023715415019762844,0.44861660079051385
655,0.39574468085106385,0.0,0.03404255319148936,0.5702127659574469
656,0.011790393013100437,0.9759825327510917,0.010917030567685589,0.0013100436681222707
657,0.011790393013100437,0.9759825327510917,0.010917030567685589,0.0013100436681222707
658,0.011790393013100437,0.9759825327510917,0.010917030567685589,0.0013100436681222707
659,0.011790393013100437,0.9759825327510917,0.010917030567685589,0.0013100436681222707
660,0.13990825688073394,0.0,0.07339449541284404,0.786697247706422
661,0.011790393013100437,0.9759825327510917,0.010917030567685589,0.0013100436681222707
662,0.452,0.096,0.448,0.004
663,0.011790393013100437,0.9759825327510917,0.010917030567685589,0.0013100436681222707
664,0.011790393013100437,0.9759825327510917,0.010917030567685589,0.0013100436681222707
665,0.011790393013100437,0.9759825327510917,0.010917030567685589,0.0013100436681222707
666,0.5276679841897233,0.0,0.023715415019762844,0.44861660079051385
667,0.452,0.096,0.448,0.004
668,0.03856749311294766,0.8650137741046832,0.09090909090909091,0.005509641873278237
669,0.011790393013100437,0.9759825327510917,0.010917030567685589,0.0013100436681222707
670,0.03205128205128205,0.11538461538461539,0.8461538461538461,0.00641025641025641
671,0.03856749311294766,0.8650137741046832,0.09090909090909091,0.005509641873278237
672,0.011790393013100437,0.9759825327510917,0.010917030567685589,0.0013100436681222707
673,0.0989010989010989,0.0,0.03663003663003663,0.8644688644688645
674,0.08974358974358974,0.5128205128205128,0.38461538461538464,0.01282051282051282
675,0.08181818181818182,0.004545454545454545,0.004545454545454545,0.9090909090909091
676,0.452,0.096,0.448,0.004
677,0.3253424657534247,0.0,0.010273972602739725,0.6643835616438356
678,0.011790393013100437,0.9759825327510917,0.010917030567685589,0.0013100436681222707
679,0.22971014492753622,0.029710144927536233,0.7289855072463768,0.011594202898550725
680,0.0,0.0,0.0,1.0
681,0.13990825688073394,0.0,0.07339449541284404,0.786697247706422
682,0.3253424657534247,0.0,0.010273972602739725,0.6643835616438356
683,0.14736842105263157,0.0,0.005263157894736842,0.8473684210526315
684,0.011790393013100437,0.9759825327510917,0.010917030567685589,0.0013100436681222707
685,0.22971014492753622,0.029710144927536233,0.7289855072463768,0.011594202898550725
686,0.3253424657534247,0.0,0.010273972602739725,0.6643835616438356
687,0.011790393013100437,0.9759825327510917,0.010917030567685589,0.0013100436681222707
688,0.452,0.096,0.448,0.004
689,0.03856749311294766,0.8650137741046832,0.09090909090909091,0.005509641873278237
690,0.011790393013100437,0.9759825327510917,0.010917030567685589,0.0013100436681222707
691,0.6724137931034483,0.008620689655172414,0.2413793103448276,0.07758620689655173
692,0.21052631578947367,0.0,0.0,0.7894736842105263
693,0.13990825688073394,0.0,0.07339449541284404,0.786697247706422
694,0.0989010989010989,0.0,0.03663003663003663,0.8644688644688645
695,0.0989010989010989,0.0,0.03663003663003663,0.8644688644688645
696,0.011790393013100437,0.9759825327510917,0.010917030567685589,0.0013100436681222707
697,0.3103448275862069,0.6724137931034483,0.017241379310344827,0.0
698,0.3253424657534247,0.0,0.010273972602739725,0.6643835616438356
699,0.22971014492753622,0.029710144927536233,0.7289855072463768,0.011594202898550725
700,0.017964071856287425,0.8203592814371258,0.16167664670658682,0.0
701,0.13990825688073394,0.0,0.07339449541284404,0.786697247706422
702,0.39574468085106385,0.0,0.03404255319148936,0.5702127659574469
703,0.22971014492753622,0.029710144927536233,0.7289855072463768,0.011594202898550725
704,0.6724137931034483,0.008620689655172414,0.2413793103448276,0.07758620689655173
705,0.0989010989010989,0.0,0.03663003663003663,0.8644688644688645
706,0.3072916666666667,0.16145833333333334,0.5130208333333334,0.018229166666666668
707,0.13990825688073394,0.0,0.07339449541284404,0.786697247706422
708,0.011790393013100437,0.9759825327510917,0.010917030567685589,0.0013100436681222707
709,0.3072916666666667,0.16145833333333334,0.5130208333333334,0.018229166666666668
710,0.452,0.096,0.448,0.004
711,0.011790393013100437,0.9759825327510917,0.010917030567685589,0.0013100436681222707
712,0.13990825688073394,0.0,0.07339449541284404,0.786697247706422
713,0.011790393013100437,0.9759825327510917,0.010917030567685589,0.0013100436681222707
714,0.0989010989010989,0.0,0.03663003663003663,0.8644688644688645
715,0.011790393013100437,0.9759825327510917,0.010917030567685589,0.0013100436681222707
716,0.5679012345679012,0.0,0.0,0.43209876543209874
717,0.011790393013100437,0.9759825327510917,0.010917030567685589,0.0013100436681222707
718,0.011790393013100437,0.9759825327510917,0.010917030567685589,0.0013100436681222707
719,0.03205128205128205,0.11538461538461539,0.8461538461538461,0.00641025641025641
720,0.011790393013100437,0.9759825327510917,0.010917030567685589,0.0013100436681222707
721,0.13990825688073394,0.0,0.07339449541284404,0.786697247706422
722,0.03856749311294766,0.8650137741046832,0.09090909090909091,0.005509641873278237
723,0.011790393013100437,0.9759825327510917,0.010917030567685589,0.0013100436681222707
724,0.08974358974358974,0.5128205128205128,0.38461538461538464,0.01282051282051282
725,0.011790393013100437,0.9759825327510917,0.010917030567685589,0.0013100436681222707
726,0.011790393013100437,0.9759825327510917,0.010917030567685589,0.0013100436681222707
727,0.22971014492753622,0.029710144927536233,0.7289855072463768,0.011594202898550725
728,0.5276679841897233,0.0,0.023715415019762844,0.44861660079051385
729,0.011790393013100437,0.9759825327510917,0.010917030567685589,0.0013100436681222707
730,0.011790393013100437,0.9759825327510917,0.010917030567685589,0.0013100436681222707
731,0.22971014492753622,0.029710144927536233,0.7289855072463768,0.011594202898550725
732,0.0989010989010989,0.0,0.03663003663003663,0.8644688644688645
733,0.14736842105263157,0.0,0.005263157894736842,0.8473684210526315
734,0.22971014492753622,0.029710144927536233,0.7289855072463768,0.011594202898550725
735,0.22971014492753622,0.029710144927536233,0.7289855072463768,0.011594202898550725
736,0.6724137931034483,0.008620689655172414,0.2413793103448276,0.07758620689655173
737,0.075,0.2,0.725,0.0
738,0.03205128205128205,0.11538461538461539,0.8461538461538461,0.00641025641025641
739,0.5276679841897233,0.0,0.023715415019762844,0.44861660079051385
740,0.14736842105263157,0.0,0.005263157894736842,0.8473684210526315
741,0.03856749311294766,0.8650137741046832,0.09090909090909091,0.005509641873278237
742,0.21739130434782608,0.0,0.03260869565217391,0.75
743,0.22971014492753622,0.029710144927536233,0.7289855072463768,0.011594202898550725
744,0.22971014492753622,0.029710144927536233,0.7289855072463768,0.011594202898550725
745,0.011790393013100437,0.9759825327510917,0.010917030567685589,0.0013100436681222707
746,0.011790393013100437,0.9759825327510917,0.010917030567685589,0.0013100436681222707
747,0.9032258064516129,0.0,0.03225806451612903,0.06451612903225806
748,0.22971014492753622,0.029710144927536233,0.7289855072463768,0.011594202898550725
749,0.011790393013100437,0.9759825327510917,0.010917030567685589,0.0013100436681222707
750,0.011790393013100437,0.9759825327510917,0.010917030567685589,0.0013100436681222707
751,0.21739130434782608,0.0,0.03260869565217391,0.75
752,0.39574468085106385,0.0,0.03404255319148936,0.5702127659574469
753,0.5276679841897233,0.0,0.023715415019762844,0.44861660079051385
754,0.011790393013100437,0.9759825327510917,0.010917030567685589,0.0013100436681222707
755,0.011790393013100437,0.9759825327510917,0.010917030567685589,0.0013100436681222707
756,0.011790393013100437,0.9759825327510917,0.010917030567685589,0.0013100436681222707
757,0.017964071856287425,0.8203592814371258,0.16167664670658682,0.0
758,0.14736842105263157,0.0,0.005263157894736842,0.8473684210526315
759,0.39574468085106385,0.0,0.03404255319148936,0.5702127659574469
760,0.452,0.096,0.448,0.004
761,0.011790393013100437,0.9759825327510917,0.010917030567685589,0.0013100436681222707
762,0.3072916666666667,0.16145833333333334,0.5130208333333334,0.018229166666666668
763,0.08181818181818182,0.004545454545454545,0.004545454545454545,0.9090909090909091
764,0.03205128205128205,0.11538461538461539,0.8461538461538461,0.00641025641025641
765,0.011790393013100437,0.9759825327510917,0.010917030567685589,0.0013100436681222707
766,0.0989010989010989,0.0,0.03663003663003663,0.8644688644688645
767,0.8917525773195877,0.005154639175257732,0.04639175257731959,0.05670103092783505
768,0.21052631578947367,0.0,0.0,0.7894736842105263
769,0.03856749311294766,0.8650137741046832,0.09090909090909091,0.005509641873278237
770,0.452,0.096,0.448,0.004
771,0.08181818181818182,0.004545454545454545,0.004545454545454545,0.9090909090909091
772,0.22971014492753622,0.029710144927536233,0.7289855072463768,0.011594202898550725
773,0.452,0.096,0.448,0.004
774,0.03856749311294766,0.8650137741046832,0.09090909090909091,0.005509641873278237
775,0.8917525773195877,0.005154639175257732,0.04639175257731959,0.05670103092783505
776,0.22971014492753622,0.029710144927536233,0.7289855072463768,0.011594202898550725
777,0.22971014492753622,0.029710144927536233,0.7289855072463768,0.011594202898550725
778,0.5276679841897233,0.0,0.023715415019762844,0.44861660079051385
779,0.011790393013100437,0.9759825327510917,0.010917030567685589,0.0013100436681222707
780,0.08974358974358974,0.5128205128205128,0.38461538461538464,0.01282051282051282
781,0.011790393013100437,0.9759825327510917,0.010917030567685589,0.0013100436681222707
782,0.011790393013100437,0.9759825327510917,0.010917030567685589,0.0013100436681222707
783,0.011790393013100437,0.9759825327510917,0.010917030567685589,0.0013100436681222707
784,0.22971014492753622,0.029710144927536233,0.7289855072463768,0.011594202898550725
785,0.02631578947368421,0.0,0.10526315789473684,0.868421052631579
786,0.011790393013100437,0.9759825327510917,0.010917030567685589,0.0013100436681222707
787,0.22971014492753622,0.029710144927536233,0.7289855072463768,0.011594202898550725
788,0.5276679841897233,0.0,0.023715415019762844,0.44861660079051385
789,0.011790393013100437,0.9759825327510917,0.010917030567685589,0.0013100436681222707
790,0.011790393013100437,0.9759825327510917,0.010917030567685589,0.0013100436681222707
791,0.08181818181818182,0.004545454545454545,0.004545454545454545,0.9090909090909091
792,0.22971014492753622,0.029710144927536233,0.7289855072463768,0.011594202898550725
793,0.22971014492753622,0.029710144927536233,0.7289855072463768,0.011594202898550725
794,0.6724137931034483,0.008620689655172414,0.2413793103448276,0.07758620689655173
795,0.5862068965517241,0.11494252873563218,0.26436781609195403,0.034482758620689655
796,0.011790393013100437,0.9759825327510917,0.010917030567685589,0.0013100436681222707
797,0.22971014492753622,0.029710144927536233,0.7289855072463768,0.011594202898550725
798,0.011790393013100437,0.9759825327510917,0.010917030567685589,0.0013100436681222707
799,0.011790393013100437,0.9759825327510917,0.010917030567685589,0.0013100436681222707
800,0.011790393013100437,0.9759825327510917,0.010917030567685589,0.0013100436681222707
801,0.6724137931034483,0.008620689655172414,0.2413793103448276,0.07758620689655173
802,0.08181818181818182,0.004545454545454545,0.004545454545454545,0.9090909090909091
803,0.22971014492753622,0.029710144927536233,0.7289855072463768,0.011594202898550725
804,0.08181818181818182,0.004545454545454545,0.004545454545454545,0.9090909090909091
805,0.22971014492753622,0.029710144927536233,0.7289855072463768,0.011594202898550725
806,0.011790393013100437,0.9759825327510917,0.010917030567685589,0.0013100436681222707
807,0.011790393013100437,0.9759825327510917,0.010917030567685589,0.0013100436681222707
808,0.13990825688073394,0.0,0.07339449541284404,0.786697247706422
809,0.3072916666666667,0.16145833333333334,0.5130208333333334,0.018229166666666668
810,0.0989010989010989,0.0,0.03663003663003663,0.8644688644688645
811,0.3103448275862069,0.6724137931034483,0.017241379310344827,0.0
812,0.011790393013100437,0.9759825327510917,0.010917030567685589,0.0013100436681222707
813,0.22971014492753622,0.029710144927536233,0.7289855072463768,0.011594202898550725
814,0.8917525773195877,0.005154639175257732,0.04639175257731959,0.05670103092783505
815,0.011790393013100437,0.9759825327510917,0.010917030567685589,0.0013100436681222707
816,0.21052631578947367,0.0,0.0,0.7894736842105263
817,0.22971014492753622,0.029710144927536233,0.7289855072463768,0.011594202898550725
818,0.3253424657534247,0.0,0.010273972602739725,0.6643835616438356
819,0.02631578947368421,0.0,0.10526315789473684,0.868421052631579
820,0.011790393013100437,0.9759825327510917,0.010917030567685589,0.0013100436681222707
821,0.3072916666666667,0.16145833333333334,0.5130208333333334,0.018229166666666668
822,0.011790393013100437,0.9759825327510917,0.010917030567685589,0.0013100436681222707
823,0.011790393013100437,0.9759825327510917,0.010917030567685589,0.0013100436681222707
824,0.2222222222222222,0.4888888888888889,0.28888888888888886,0.0
825,0.011790393013100437,0.9759825327510917,0.010917030567685589,0.0013100436681222707
826,0.22971014492753622,0.029710144927536233,0.7289855072463768,0.011594202898550725
827,0.14736842105263157,0.0,0.005263157894736842,0.8473684210526315
828,0.22971014492753622,0.029710144927536233,0.7289855072463768,0.011594202898550725
829,0.03205128205128205,0.11538461538461539,0.8461538461538461,0.00641025641025641
830,0.3072916666666667,0.16145833333333334,0.5130208333333334,0.018229166666666668
831,0.2222222222222222,0.4888888888888889,0.28888888888888886,0.0
832,0.22971014492753622,0.029710144927536233,0.7289855072463768,0.011594202898550725
833,0.011790393013100437,0.9759825327510917,0.010917030567685589,0.0013100436681222707
834,0.8917525773195877,0.005154639175257732,0.04639175257731959,0.05670103092783505
835,0.8917525773195877,0.005154639175257732,0.04639175257731959,0.05670103092783505
836,0.22971014492753622,0.029710144927536233,0.7289855072463768,0.011594202898550725
837,1.0,0.0,0.0,0.0
838,0.22971014492753622,0.029710144927536233,0.7289855072463768,0.011594202898550725
839,0.03856749311294766,0.8650137741046832,0.09090909090909091,0.005509641873278237
840,0.08333333333333333,0.0,0.0,0.9166666666666666
841,0.8917525773195877,0.005154639175257732,0.04639175257731959,0.05670103092783505
842,0.3072916666666667,0.16145833333333334,0.5130208333333334,0.018229166666666668
843,0.5679012345679012,0.0,0.0,0.43209876543209874
844,0.0989010989010989,0.0,0.03663003663003663,0.8644688644688645
845,0.21739130434782608,0.0,0.03260869565217391,0.75
846,0.011790393013100437,0.9759825327510917,0.010917030567685589,0.0013100436681222707
847,0.011790393013100437,0.9759825327510917,0.010917030567685589,0.0013100436681222707
848,0.0989010989010989,0.0,0.03663003663003663,0.8644688644688645
849,0.13990825688073394,0.0,0.07339449541284404,0.786697247706422
850,0.6724137931034483,0.008620689655172414,0.2413793103448276,0.07758620689655173
851,0.011790393013100437,0.9759825327510917,0.010917030567685589,0.0013100436681222707
852,0.0989010989010989,0.0,0.03663003663003663,0.8644688644688645
853,0.011790393013100437,0.9759825327510917,0.010917030567685589,0.0013100436681222707
854,0.03205128205128205,0.11538461538461539,0.8461538461538461,0.00641025641025641
855,0.3253424657534247,0.0,0.010273972602739725,0.6643835616438356
856,0.011790393013100437,0.9759825327510917,0.010917030567685589,0.0013100436681222707
857,0.3253424657534247,0.0,0.010273972602739725,0.6643835616438356
858,0.011790393013100437,0.9759825327510917,0.010917030567685589,0.0013100436681222707
859,0.8917525773195877,0.005154639175257732,0.04639175257731959,0.05670103092783505
860,0.13990825688073394,0.0,0.07339449541284404,0.786697247706422
861,0.22971014492753622,0.029710144927536233,0.7289855072463768,0.011594202898550725
862,0.011790393013100437,0.9759825327510917,0.010917030567685589,0.0013100436681222707
863,0.22971014492753622,0.029710144927536233,0.7289855072463768,0.011594202898550725
864,0.21052631578947367,0.0,0.0,0.7894736842105263
865,0.3103448275862069,0.6724137931034483,0.017241379310344827,0.0
866,0.3253424657534247,0.0,0.010273972602739725,0.6643835616438356
867,0.14736842105263157,0.0,0.005263157894736842,0.8473684210526315
868,0.5276679841897233,0.0,0.023715415019762844,0.44861660079051385
869,0.3103448275862069,0.6724137931034483,0.017241379310344827,0.0
870,0.3072916666666667,0.16145833333333334,0.5130208333333334,0.018229166666666668
871,0.011790393013100437,0.9759825327510917,0.010917030567685589,0.0013100436681222707
872,0.13990825688073394,0.0,0.07339449541284404,0.786697247706422
873,0.011790393013100437,0.9759825327510917,0.010917030567685589,0.0013100436681222707
874,0.22971014492753622,0.029710144927536233,0.7289855072463768,0.011594202898550725
875,0.5679012345679012,0.0,0.0,0.43209876543209874
876,0.22971014492753622,0.029710144927536233,0.7289855072463768,0.011594202898550725
877,0.011790393013100437,0.9759825327510917,0.010917030567685589,0.0013100436681222707
878,0.22971014492753622,0.029710144927536233,0.7289855072463768,0.011594202898550725
879,0.21739130434782608,0.0,0.03260869565217391,0.75
880,0.08181818181818182,0.004545454545454545,0.004545454545454545,0.9090909090909091
881,0.011790393013100437,0.9759825327510917,0.010917030567685589,0.0013100436681222707
882,0.011790393013100437,0.9759825327510917,0.010917030567685589,0.0013100436681222707
883,0.3253424657534247,0.0,0.010273972602739725,0.6643835616438356
884,0.0989010989010989,0.0,0.03663003663003663,0.8644688644688645
885,0.011790393013100437,0.9759825327510917,0.010917030567685589,0.0013100436681222707
886,0.0,0.0,0.0,1.0
887,0.011790393013100437,0.9759825327510917,0.010917030567685589,0.0013100436681222707
888,0.011790393013100437,0.9759825327510917,0.010917030567685589,0.0013100436681222707
889,0.08181818181818182,0.004545454545454545,0.004545454545454545,0.9090909090909091
890,0.3072916666666667,0.16145833333333334,0.5130208333333334,0.018229166666666668
891,0.5276679841897233,0.0,0.023715415019762844,0.44861660079051385
892,0.03856749311294766,0.8650137741046832,0.09090909090909091,0.005509641873278237
893,0.08181818181818182,0.004545454545454545,0.004545454545454545,0.9090909090909091
894,0.22971014492753622,0.029710144927536233,0.7289855072463768,0.011594202898550725
895,0.3072916666666667,0.16145833333333334,0.5130208333333334,0.018229166666666668
896,0.13990825688073394,0.0,0.07339449541284404,0.786697247706422
897,0.3253424657534247,0.0,0.010273972602739725,0.6643835616438356
898,0.5276679841897233,0.0,0.023715415019762844,0.44861660079051385
899,0.011790393013100437,0.9759825327510917,0.010917030567685589,0.0013100436681222707
900,0.5276679841897233,0.0,0.023715415019762844,0.44861660079051385
901,0.22971014492753622,0.029710144927536233,0.7289855072463768,0.011594202898550725
902,0.452,0.096,0.448,0.004
903,0.011790393013100437,0.9759825327510917,0.010917030567685589,0.0013100436681222707
904,0.452,0.096,0.448,0.004
905,0.011790393013100437,0.9759825327510917,0.010917030567685589,0.0013100436681222707
906,0.08181818181818182,0.004545454545454545,0.004545454545454545,0.9090909090909091
907,0.011790393013100437,0.9759825327510917,0.010917030567685589,0.0013100436681222707
908,0.5276679841897233,0.0,0.023715415019762844,0.44861660079051385
909,0.5276679841897233,0.0,0.023715415019762844,0.44861660079051385
910,0.011790393013100437,0.9759825327510917,0.010917030567685589,0.0013100436681222707
911,0.22971014492753622,0.029710144927536233,0.7289855072463768,0.011594202898550725
912,0.011790393013100437,0.9759825327510917,0.010917030567685589,0.0013100436681222707
913,0.03856749311294766,0.8650137741046832,0.09090909090909091,0.005509641873278237
914,0.39574468085106385,0.0,0.03404255319148936,0.5702127659574469
915,0.011790393013100437,0.9759825327510917,0.010917030567685589,0.0013100436681222707
916,0.8917525773195877,0.005154639175257732,0.04639175257731959,0.05670103092783505
917,0.39574468085106385,0.0,0.03404255319148936,0.5702127659574469
918,0.3253424657534247,0.0,0.010273972602739725,0.6643835616438356
919,0.75,0.25,0.0,0.0
920,0.08181818181818182,0.004545454545454545,0.004545454545454545,0.9090909090909091
921,0.5276679841897233,0.0,0.023715415019762844,0.44861660079051385
922,0.02631578947368421,0.0,0.10526315789473684,0.868421052631579
923,0.011790393013100437,0.9759825327510917,0.010917030567685589,0.0013100436681222707
924,0.011790393013100437,0.9759825327510917,0.010917030567685589,0.0013100436681222707
925,0.011790393013100437,0.9759825327510917,0.010917030567685589,0.0013100436681222707
926,0.452,0.096,0.448,0.004
927,0.011790393013100437,0.9759825327510917,0.010917030567685589,0.0013100436681222707
928,0.22971014492753622,0.029710144927536233,0.7289855072463768,0.011594202898550725
929,0.6724137931034483,0.008620689655172414,0.2413793103448276,0.07758620689655173
930,0.21052631578947367,0.0,0.0,0.7894736842105263
931,0.0989010989010989,0.0,0.03663003663003663,0.8644688644688645
932,0.3253424657534247,0.0,0.010273972602739725,0.6643835616438356
933,0.13990825688073394,0.0,0.07339449541284404,0.786697247706422
934,0.0989010989010989,0.0,0.03663003663003663,0.8644688644688645
935,0.22971014492753622,0.029710144927536233,0.7289855072463768,0.011594202898550725
936,0.8917525773195877,0.005154639175257732,0.04639175257731959,0.05670103092783505
937,0.017964071856287425,0.8203592814371258,0.16167664670658682,0.0
938,0.08181818181818182,0.004545454545454545,0.004545454545454545,0.9090909090909091
939,0.14736842105263157,0.0,0.005263157894736842,0.8473684210526315
940,0.017964071856287425,0.8203592814371258,0.16167664670658682,0.0
941,0.0989010989010989,0.0,0.03663003663003663,0.8644688644688645
942,0.452,0.096,0.448,0.004
943,0.8917525773195877,0.005154639175257732,0.04639175257731959,0.05670103092783505
944,0.13990825688073394,0.0,0.07339449541284404,0.786697247706422
945,0.452,0.096,0.448,0.004
946,0.3072916666666667,0.16145833333333334,0.5130208333333334,0.018229166666666668
947,0.011790393013100437,0.9759825327510917,0.010917030567685589,0.0013100436681222707
948,0.39574468085106385,0.0,0.03404255319148936,0.5702127659574469
949,0.011790393013100437,0.9759825327510917,0.010917030567685589,0.0013100436681222707
950,0.8917525773195877,0.005154639175257732,0.04639175257731959,0.05670103092783505
951,0.011790393013100437,0.9759825327510917,0.010917030567685589,0.0013100436681222707
952,0.017964071856287425,0.8203592814371258,0.16167664670658682,0.0
953,0.03856749311294766,0.8650137741046832,0.09090909090909091,0.005509641873278237
954,0.452,0.096,0.448,0.004
955,0.0989010989010989,0.0,0.03663003663003663,0.8644688644688645
956,0.0,0.0,0.0,1.0
957,0.011790393013100437,0.9759825327510917,0.010917030567685589,0.0013100436681222707
958,0.3072916666666667,0.16145833333333334,0.5130208333333334,0.018229166666666668
959,0.452,0.096,0.448,0.004
960,0.13990825688073394,0.0,0.07339449541284404,0.786697247706422
961,0.22971014492753622,0.029710144927536233,0.7289855072463768,0.011594202898550725
962,0.13990825688073394,0.0,0.07339449541284404,0.786697247706422
963,0.22971014492753622,0.029710144927536233,0.7289855072463768,0.011594202898550725
964,0.011790393013100437,0.9759825327510917,0.010917030567685589,0.0013100436681222707
965,0.39574468085106385,0.0,0.03404255319148936,0.5702127659574469
966,0.21739130434782608,0.0,0.03260869565217391,0.75
967,0.22971014492753622,0.029710144927536233,0.7289855072463768,0.011594202898550725
968,0.3072916666666667,0.16145833333333334,0.5130208333333334,0.018229166666666668
969,0.011790393013100437,0.9759825327510917,0.010917030567685589,0.0013100436681222707
970,0.08181818181818182,0.004545454545454545,0.004545454545454545,0.9090909090909091
971,0.14736842105263157,0.0,0.005263157894736842,0.8473684210526315
972,0.011790393013100437,0.9759825327510917,0.010917030567685589,0.0013100436681222707
973,0.3253424657534247,0.0,0.010273972602739725,0.6643835616438356
974,0.0989010989010989,0.0,0.03663003663003663,0.8644688644688645
975,0.011790393013100437,0.9759825327510917,0.010917030567685589,0.0013100436681222707
976,0.8917525773195877,0.005154639175257732,0.04639175257731959,0.05670103092783505
977,0.3072916666666667,0.16145833333333334,0.5130208333333334,0.018229166666666668
978,0.8917525773195877,0.005154639175257732,0.04639175257731959,0.05670103092783505
979,0.22971014492753622,0.029710144927536233,0.7289855072463768,0.011594202898550725
980,0.03856749311294766,0.8650137741046832,0.09090909090909091,0.005509641873278237
981,0.011790393013100437,0.9759825327510917,0.010917030567685589,0.0013100436681222707
982,0.03856749311294766,0.8650137741046832,0.09090909090909091,0.005509641873278237
983,0.0989010989010989,0.0,0.03663003663003663,0.8644688644688645
984,0.011790393013100437,0.9759825327510917,0.010917030567685589,0.0013100436681222707
985,0.011790393013100437,0.9759825327510917,0.010917030567685589,0.0013100436681222707
986,0.011790393013100437,0.9759825327510917,0.010917030567685589,0.0013100436681222707
987,0.22971014492753622,0.029710144927536233,0.7289855072463768,0.011594202898550725
988,0.5276679841897233,0.0,0.023715415019762844,0.44861660079051385
989,0.011790393013100437,0.9759825327510917,0.010917030567685589,0.0013100436681222707
990,0.011790393013100437,0.9759825327510917,0.010917030567685589,0.0013100436681222707
991,0.0,0.0,0.0,1.0
992,0.011790393013100437,0.9759825327510917,0.010917030567685589,0.0013100436681222707
993,0.011790393013100437,0.9759825327510917,0.010917030567685589,0.0013100436681222707
994,0.011790393013100437,0.9759825327510917,0.010917030567685589,0.0013100436681222707
995,0.6956521739130435,0.08695652173913043,0.17391304347826086,0.043478260869565216
996,0.21739130434782608,0.0,0.03260869565217391,0.75
997,0.011790393013100437,0.9759825327510917,0.010917030567685589,0.0013100436681222707
998,0.03856749311294766,0.8650137741046832,0.09090909090909091,0.005509641873278237
999,1.0,0.0,0.0,0.0
1000,0.22971014492753622,0.029710144927536233,0.7289855072463768,0.011594202898550725
1001,0.22971014492753622,0.029710144927536233,0.7289855072463768,0.011594202898550725
1002,0.08181818181818182,0.004545454545454545,0.004545454545454545,0.9090909090909091
1003,0.3072916666666667,0.16145833333333334,0.5130208333333334,0.018229166666666668
1004,0.21739130434782608,0.0,0.03260869565217391,0.75
1005,0.011790393013100437,0.9759825327510917,0.010917030567685589,0.0013100436681222707
1006,0.011790393013100437,0.9759825327510917,0.010917030567685589,0.0013100436681222707
1007,0.011790393013100437,0.9759825327510917,0.010917030567685589,0.0013100436681222707
1008,0.8917525773195877,0.005154639175257732,0.04639175257731959,0.05670103092783505
1009,0.03205128205128205,0.11538461538461539,0.8461538461538461,0.00641025641025641
1010,0.011790393013100437,0.9759825327510917,0.010917030567685589,0.0013100436681222707
1011,0.8917525773195877,0.005154639175257732,0.04639175257731959,0.05670103092783505
1012,0.13990825688073394,0.0,0.07339449541284404,0.786697247706422
1013,0.0989010989010989,0.0,0.03663003663003663,0.8644688644688645
1014,0.011790393013100437,0.9759825327510917,0.010917030567685589,0.0013100436681222707
1015,0.13990825688073394,0.0,0.07339449541284404,0.786697247706422
1016,0.452,0.096,0.448,0.004
1017,0.03856749311294766,0.8650137741046832,0.09090909090909091,0.005509641873278237
1018,0.011790393013100437,0.9759825327510917,0.010917030567685589,0.0013100436681222707
1019,0.21739130434782608,0.0,0.03260869565217391,0.75
1020,0.22971014492753622,0.029710144927536233,0.7289855072463768,0.011594202898550725
1021,0.22971014492753622,0.029710144927536233,0.7289855072463768,0.011594202898550725
1022,0.39574468085106385,0.0,0.03404255319148936,0.5702127659574469
1023,0.03856749311294766,0.8650137741046832,0.09090909090909091,0.005509641873278237
1024,0.5276679841897233,0.0,0.023715415019762844,0.44861660079051385
1025,0.011790393013100437,0.9759825327510917,0.010917030567685589,0.0013100436681222707
1026,0.452,0.096,0.448,0.004
1027,0.14736842105263157,0.0,0.005263157894736842,0.8473684210526315
1028,0.011790393013100437,0.9759825327510917,0.010917030567685589,0.0013100436681222707
1029,0.011790393013100437,0.9759825327510917,0.010917030567685589,0.0013100436681222707
1030,0.011790393013100437,0.9759825327510917,0.010917030567685589,0.0013100436681222707
1031,0.03205128205128205,0.11538461538461539,0.8461538461538461,0.00641025641025641
1032,0.3103448275862069,0.6724137931034483,0.017241379310344827,0.0
1033,0.3072916666666667,0.16145833333333334,0.5130208333333334,0.018229166666666668
1034,0.22971014492753622,0.029710144927536233,0.7289855072463768,0.011594202898550725
1035,0.011790393013100437,0.9759825327510917,0.010917030567685589,0.0013100436681222707
1036,0.3072916666666667,0.16145833333333334,0.5130208333333334,0.018229166666666668
1037,0.3253424657534247,0.0,0.010273972602739725,0.6643835616438356
1038,0.0989010989010989,0.0,0.03663003663003663,0.8644688644688645
1039,0.011790393013100437,0.9759825327510917,0.010917030567685589,0.0013100436681222707
1040,0.5276679841897233,0.0,0.023715415019762844,0.44861660079051385
1041,0.22971014492753622,0.029710144927536233,0.7289855072463768,0.011594202898550725
1042,0.011790393013100437,0.9759825327510917,0.010917030567685589,0.0013100436681222707
1043,0.22971014492753622,0.029710144927536233,0.7289855072463768,0.011594202898550725
1044,0.13990825688073394,0.0,0.07339449541284404,0.786697247706422
1045,0.3253424657534247,0.0,0.010273972602739725,0.6643835616438356
1046,0.13990825688073394,0.0,0.07339449541284404,0.786697247706422
1047,0.03856749311294766,0.8650137741046832,0.09090909090909091,0.005509641873278237
1048,0.22971014492753622,0.029710144927536233,0.7289855072463768,0.011594202898550725
1049,0.8917525773195877,0.005154639175257732,0.04639175257731959,0.05670103092783505
1050,0.22971014492753622,0.029710144927536233,0.7289855072463768,0.011594202898550725
1051,0.5276679841897233,0.0,0.023715415019762844,0.44861660079051385
1052,0.22971014492753622,0.029710144927536233,0.7289855072463768,0.011594202898550725
1053,0.011790393013100437,0.9759825327510917,0.010917030567685589,0.0013100436681222707
1054,0.22971014492753622,0.029710144927536233,0.7289855072463768,0.011594202898550725
1055,0.3103448275862069,0.6724137931034483,0.017241379310344827,0.0
1056,0.14736842105263157,0.0,0.005263157894736842,0.8473684210526315
1057,0.39574468085106385,0.0,0.03404255319148936,0.5702127659574469
1058,0.03205128205128205,0.11538461538461539,0.8461538461538461,0.00641025641025641
1059,0.011790393013100437,0.9759825327510917,0.010917030567685589,0.0013100436681222707
1060,0.1111111111111111,0.3333333333333333,0.5555555555555556,0.0
1061,0.011790393013100437,0.9759825327510917,0.010917030567685589,0.0013100436681222707
1062,0.39574468085106385,0.0,0.03404255319148936,0.5702127659574469
1063,0.08974358974358974,0.5128205128205128,0.38461538461538464,0.01282051282051282
1064,0.3253424657534247,0.0,0.010273972602739725,0.6643835616438356
1065,0.22971014492753622,0.029710144927536233,0.7289855072463768,0.011594202898550725
1066,0.39574468085106385,0.0,0.03404255319148936,0.5702127659574469
1067,0.08181818181818182,0.004545454545454545,0.004545454545454545,0.9090909090909091
1068,0.011790393013100437,0.9759825327510917,0.010917030567685589,0.0013100436681222707
1069,0.21052631578947367,0.0,0.0,0.7894736842105263
1070,0.0989010989010989,0.0,0.03663003663003663,0.8644688644688645
1071,0.22971014492753622,0.029710144927536233,0.7289855072463768,0.011594202898550725
1072,0.39574468085106385,0.0,0.03404255319148936,0.5702127659574469
1073,0.22971014492753622,0.029710144927536233,0.7289855072463768,0.011594202898550725
1074,0.011790393013100437,0.9759825327510917,0.010917030567685589,0.0013100436681222707
1075,0.14736842105263157,0.0,0.005263157894736842,0.8473684210526315
1076,0.3253424657534247,0.0,0.010273972602739725,0.6643835616438356
1077,0.011790393013100437,0.9759825327510917,0.010917030567685589,0.0013100436681222707
1078,0.0989010989010989,0.0,0.03663003663003663,0.8644688644688645
1079,0.22971014492753622,0.029710144927536233,0.7289855072463768,0.011594202898550725
1080,0.5276679841897233,0.0,0.023715415019762844,0.44861660079051385
1081,0.5679012345679012,0.0,0.0,0.43209876543209874
1082,0.03856749311294766,0.8650137741046832,0.09090909090909091,0.005509641873278237
1083,0.011790393013100437,0.9759825327510917,0.010917030567685589,0.0013100436681222707
1084,0.39574468085106385,0.0,0.03404255319148936,0.5702127659574469
1085,0.21052631578947367,0.0,0.0,0.7894736842105263
1086,0.5276679841897233,0.0,0.023715415019762844,0.44861660079051385
1087,0.14736842105263157,0.0,0.005263157894736842,0.8473684210526315
1088,0.5276679841897233,0.0,0.023715415019762844,0.44861660079051385
1089,0.3072916666666667,0.16145833333333334,0.5130208333333334,0.018229166666666668
1090,0.0,0.0,0.0,1.0
1091,0.5679012345679012,0.0,0.0,0.43209876543209874
1092,0.3103448275862069,0.6724137931034483,0.017241379310344827,0.0
1093,0.22971014492753622,0.029710144927536233,0.7289855072463768,0.011594202898550725
1094,0.0989010989010989,0.0,0.03663003663003663,0.8644688644688645
1095,0.22971014492753622,0.029710144927536233,0.7289855072463768,0.011594202898550725
1096,0.03205128205128205,0.11538461538461539,0.8461538461538461,0.00641025641025641
1097,0.5276679841897233,0.0,0.023715415019762844,0.44861660079051385
1098,0.011790393013100437,0.9759825327510917,0.010917030567685589,0.0013100436681222707
1099,0.5276679841897233,0.0,0.023715415019762844,0.44861660079051385
1100,0.011790393013100437,0.9759825327510917,0.010917030567685589,0.0013100436681222707
1101,0.21739130434782608,0.0,0.03260869565217391,0.75
1102,0.22971014492753622,0.029710144927536233,0.7289855072463768,0.011594202898550725
1103,0.5276679841897233,0.0,0.023715415019762844,0.44861660079051385
1104,0.3072916666666667,0.16145833333333334,0.5130208333333334,0.018229166666666668
1105,0.22971014492753622,0.029710144927536233,0.7289855072463768,0.011594202898550725
1106,0.452,0.096,0.448,0.004
1107,0.08181818181818182,0.004545454545454545,0.004545454545454545,0.9090909090909091
1108,0.22971014492753622,0.029710144927536233,0.7289855072463768,0.011594202898550725
1109,0.22971014492753622,0.029710144927536233,0.7289855072463768,0.011594202898550725
1110,0.452,0.096,0.448,0.004
1111,0.0,0.0,0.0,1.0
1112,0.13990825688073394,0.0,0.07339449541284404,0.786697247706422
1113,0.3253424657534247,0.0,0.010273972602739725,0.6643835616438356
1114,0.22971014492753622,0.029710144927536233,0.7289855072463768,0.011594202898550725
1115,0.011790393013100437,0.9759825327510917,0.010917030567685589,0.0013100436681222707
1116,0.0989010989010989,0.0,0.03663003663003663,0.8644688644688645
1117,0.011790393013100437,0.9759825327510917,0.010917030567685589,0.0013100436681222707
1118,0.011790393013100437,0.9759825327510917,0.010917030567685589,0.0013100436681222707
1119,0.22971014492753622,0.029710144927536233,0.7289855072463768,0.011594202898550725
1120,0.5276679841897233,0.0,0.023715415019762844,0.44861660079051385
1121,0.011790393013100437,0.9759825327510917,0.010917030567685589,0.0013100436681222707
1122,0.011790393013100437,0.9759825327510917,0.010917030567685589,0.0013100436681222707
1123,0.011790393013100437,0.9759825327510917,0.010917030567685589,0.0013100436681222707
1124,0.011790393013100437,0.9759825327510917,0.010917030567685589,0.0013100436681222707
1125,0.0989010989010989,0.0,0.03663003663003663,0.8644688644688645
1126,0.011790393013100437,0.9759825327510917,0.010917030567685589,0.0013100436681222707
1127,0.011790393013100437,0.9759825327510917,0.010917030567685589,0.0013100436681222707
1128,0.011790393013100437,0.9759825327510917,0.010917030567685589,0.0013100436681222707
1129,0.03856749311294766,0.8650137741046832,0.09090909090909091,0.005509641873278237
1130,0.011790393013100437,0.9759825327510917,0.010917030567685589,0.0013100436681222707
1131,0.13990825688073394,0.0,0.07339449541284404,0.786697247706422
1132,0.3072916666666667,0.16145833333333334,0.5130208333333334,0.018229166666666668
1133,0.22971014492753622,0.029710144927536233,0.7289855072463768,0.011594202898550725
1134,0.017964071856287425,0.8203592814371258,0.16167664670658682,0.0
1135,0.3103448275862069,0.6724137931034483,0.017241379310344827,0.0
1136,0.3072916666666667,0.16145833333333334,0.5130208333333334,0.018229166666666668
1137,0.3103448275862069,0.6724137931034483,0.017241379310344827,0.0
1138,0.22971014492753622,0.029710144927536233,0.7289855072463768,0.011594202898550725
1139,0.22971014492753622,0.029710144927536233,0.7289855072463768,0.011594202898550725
1140,0.08181818181818182,0.004545454545454545,0.004545454545454545,0.9090909090909091
1141,0.5276679841897233,0.0,0.023715415019762844,0.44861660079051385
1142,0.3072916666666667,0.16145833333333334,0.5130208333333334,0.018229166666666668
1143,0.9032258064516129,0.0,0.03225806451612903,0.06451612903225806
1144,0.452,0.096,0.448,0.004
1145,0.3072916666666667,0.16145833333333334,0.5130208333333334,0.018229166666666668
1146,0.22971014492753622,0.029710144927536233,0.7289855072463768,0.011594202898550725
1147,0.14736842105263157,0.0,0.005263157894736842,0.8473684210526315
1148,0.0,0.0,0.0,1.0
1149,0.011790393013100437,0.9759825327510917,0.010917030567685589,0.0013100436681222707
1150,0.21052631578947367,0.0,0.0,0.7894736842105263
1151,0.39574468085106385,0.0,0.03404255319148936,0.5702127659574469
1152,0.5276679841897233,0.0,0.023715415019762844,0.44861660079051385
1153,0.22971014492753622,0.029710144927536233,0.7289855072463768,0.011594202898550725
1154,0.03856749311294766,0.8650137741046832,0.09090909090909091,0.005509641873278237
1155,0.011790393013100437,0.9759825327510917,0.010917030567685589,0.0013100436681222707
1156,0.22971014492753622,0.029710144927536233,0.7289855072463768,0.011594202898550725
1157,0.13990825688073394,0.0,0.07339449541284404,0.786697247706422
1158,0.011790393013100437,0.9759825327510917,0.010917030567685589,0.0013100436681222707
1159,0.3253424657534247,0.0,0.010273972602739725,0.6643835616438356
1160,0.13990825688073394,0.0,0.07339449541284404,0.786697247706422
1161,0.3103448275862069,0.6724137931034483,0.017241379310344827,0.0
1162,0.011790393013100437,0.9759825327510917,0.010917030567685589,0.0013100436681222707
1163,0.011790393013100437,0.9759825327510917,0.010917030567685589,0.0013100436681222707
1164,0.011790393013100437,0.9759825327510917,0.010917030567685589,0.0013100436681222707
1165,0.011790393013100437,0.9759825327510917,0.010917030567685589,0.0013100436681222707
1166,0.22971014492753622,0.029710144927536233,0.7289855072463768,0.011594202898550725
1167,0.011790393013100437,0.9759825327510917,0.010917030567685589,0.0013100436681222707
1168,0.3253424657534247,0.0,0.010273972602739725,0.6643835616438356
1169,0.0989010989010989,0.0,0.03663003663003663,0.8644688644688645
1170,0.5276679841897233,0.0,0.023715415019762844,0.44861660079051385
1171,0.21739130434782608,0.0,0.03260869565217391,0.75
1172,0.5276679841897233,0.0,0.023715415019762844,0.44861660079051385
1173,0.8917525773195877,0.005154639175257732,0.04639175257731959,0.05670103092783505
1174,0.5679012345679012,0.0,0.0,0.43209876543209874
1175,0.075,0.2,0.725,0.0
1176,0.011790393013100437,0.9759825327510917,0.010917030567685589,0.0013100436681222707
1177,0.8917525773195877,0.005154639175257732,0.04639175257731959,0.05670103092783505
1178,0.21052631578947367,0.0,0.0,0.7894736842105263
1179,0.13990825688073394,0.0,0.07339449541284404,0.786697247706422
1180,0.8917525773195877,0.005154639175257732,0.04639175257731959,0.05670103092783505
1181,0.22971014492753622,0.029710144927536233,0.7289855072463768,0.011594202898550725
1182,0.3072916666666667,0.16145833333333334,0.5130208333333334,0.018229166666666668
1183,0.13990825688073394,0.0,0.07339449541284404,0.786697247706422
1184,0.21739130434782608,0.0,0.03260869565217391,0.75
1185,0.22971014492753622,0.029710144927536233,0.7289855072463768,0.011594202898550725
1186,0.3103448275862069,0.6724137931034483,0.017241379310344827,0.0
1187,0.3072916666666667,0.16145833333333334,0.5130208333333334,0.018229166666666668
1188,0.011790393013100437,0.9759825327510917,0.010917030567685589,0.0013100436681222707
1189,0.3103448275862069,0.6724137931034483,0.017241379310344827,0.0
1190,0.5276679841897233,0.0,0.023715415019762844,0.44861660079051385
1191,0.011790393013100437,0.9759825327510917,0.010917030567685589,0.0013100436681222707
1192,0.22971014492753622,0.029710144927536233,0.7289855072463768,0.011594202898550725
1193,0.22971014492753622,0.029710144927536233,0.7289855072463768,0.011594202898550725
1194,0.22971014492753622,0.029710144927536233,0.7289855072463768,0.011594202898550725
1195,0.011790393013100437,0.9759825327510917,0.010917030567685589,0.0013100436681222707
1196,0.3253424657534247,0.0,0.010273972602739725,0.6643835616438356
1197,0.011790393013100437,0.9759825327510917,0.010917030567685589,0.0013100436681222707
1198,0.6956521739130435,0.08695652173913043,0.17391304347826086,0.043478260869565216
1199,0.075,0.2,0.725,0.0
1200,0.011790393013100437,0.9759825327510917,0.010917030567685589,0.0013100436681222707
1201,0.011790393013100437,0.9759825327510917,0.010917030567685589,0.0013100436681222707
1202,0.011790393013100437,0.9759825327510917,0.010917030567685589,0.0013100436681222707
1203,0.011790393013100437,0.9759825327510917,0.010917030567685589,0.0013100436681222707
1204,0.011790393013100437,0.9759825327510917,0.010917030567685589,0.0013100436681222707
1205,0.6724137931034483,0.008620689655172414,0.2413793103448276,0.07758620689655173
1206,0.22971014492753622,0.029710144927536233,0.7289855072463768,0.011594202898550725
1207,0.017964071856287425,0.8203592814371258,0.16167664670658682,0.0
1208,0.13990825688073394,0.0,0.07339449541284404,0.786697247706422
1209,0.13990825688073394,0.0,0.07339449541284404,0.786697247706422
1210,0.452,0.096,0.448,0.004
1211,0.6724137931034483,0.008620689655172414,0.2413793103448276,0.07758620689655173
1212,0.5276679841897233,0.0,0.023715415019762844,0.44861660079051385
1213,0.03856749311294766,0.8650137741046832,0.09090909090909091,0.005509641873278237
1214,0.0989010989010989,0.0,0.03663003663003663,0.8644688644688645
1215,0.3072916666666667,0.16145833333333334,0.5130208333333334,0.018229166666666668
1216,0.22971014492753622,0.029710144927536233,0.7289855072463768,0.011594202898550725
1217,0.39574468085106385,0.0,0.03404255319148936,0.5702127659574469
1218,0.22971014492753622,0.029710144927536233,0.7289855072463768,0.011594202898550725
1219,0.011790393013100437,0.9759825327510917,0.010917030567685589,0.0013100436681222707
1220,0.39574468085106385,0.0,0.03404255319148936,0.5702127659574469
1221,0.5276679841897233,0.0,0.023715415019762844,0.44861660079051385
1222,0.03205128205128205,0.11538461538461539,0.8461538461538461,0.00641025641025641
1223,0.011790393013100437,0.9759825327510917,0.010917030567685589,0.0013100436681222707
1224,0.42857142857142855,0.42857142857142855,0.14285714285714285,0.0
1225,0.011790393013100437,0.9759825327510917,0.010917030567685589,0.0013100436681222707
1226,0.42105263157894735,0.0,0.15789473684210525,0.42105263157894735
1227,0.011790393013100437,0.9759825327510917,0.010917030567685589,0.0013100436681222707
1228,0.14736842105263157,0.0,0.005263157894736842,0.8473684210526315
1229,0.011790393013100437,0.9759825327510917,0.010917030567685589,0.0013100436681222707
1230,0.011790393013100437,0.9759825327510917,0.010917030567685589,0.0013100436681222707
1231,0.08181818181818182,0.004545454545454545,0.004545454545454545,0.9090909090909091
1232,0.011790393013100437,0.9759825327510917,0.010917030567685589,0.0013100436681222707
1233,0.011790393013100437,0.9759825327510917,0.010917030567685589,0.0013100436681222707
1234,0.21052631578947367,0.0,0.0,0.7894736842105263
1235,0.03856749311294766,0.8650137741046832,0.09090909090909091,0.005509641873278237
1236,0.011790393013100437,0.9759825327510917,0.010917030567685589,0.0013100436681222707
1237,0.22971014492753622,0.029710144927536233,0.7289855072463768,0.011594202898550725
1238,0.22971014492753622,0.029710144927536233,0.7289855072463768,0.011594202898550725
1239,0.22971014492753622,0.029710144927536233,0.7289855072463768,0.011594202898550725
1240,0.3253424657534247,0.0,0.010273972602739725,0.6643835616438356
1241,0.5276679841897233,0.0,0.023715415019762844,0.44861660079051385
1242,0.011790393013100437,0.9759825327510917,0.010917030567685589,0.0013100436681222707
1243,0.22971014492753622,0.029710144927536233,0.7289855072463768,0.011594202898550725
1244,0.14736842105263157,0.0,0.005263157894736842,0.8473684210526315
1245,0.011790393013100437,0.9759825327510917,0.010917030567685589,0.0013100436681222707
1246,0.011790393013100437,0.9759825327510917,0.010917030567685589,0.0013100436681222707
1247,0.8917525773195877,0.005154639175257732,0.04639175257731959,0.05670103092783505
1248,0.011790393013100437,0.9759825327510917,0.010917030567685589,0.0013100436681222707
1249,0.39574468085106385,0.0,0.03404255319148936,0.5702127659574469
1250,0.14736842105263157,0.0,0.005263157894736842,0.8473684210526315
1251,0.6956521739130435,0.08695652173913043,0.17391304347826086,0.043478260869565216
1252,0.8917525773195877,0.005154639175257732,0.04639175257731959,0.05670103092783505
1253,0.3253424657534247,0.0,0.010273972602739725,0.6643835616438356
1254,0.075,0.2,0.725,0.0
1255,0.22971014492753622,0.029710144927536233,0.7289855072463768,0.011594202898550725
1256,0.0,1.0,0.0,0.0
1257,0.011790393013100437,0.9759825327510917,0.010917030567685589,0.0013100436681222707
1258,0.22971014492753622,0.029710144927536233,0.7289855072463768,0.011594202898550725
1259,0.13990825688073394,0.0,0.07339449541284404,0.786697247706422
1260,0.22971014492753622,0.029710144927536233,0.7289855072463768,0.011594202898550725
1261,0.011790393013100437,0.9759825327510917,0.010917030567685589,0.0013100436681222707
1262,0.011790393013100437,0.9759825327510917,0.010917030567685589,0.0013100436681222707
1263,0.14736842105263157,0.0,0.005263157894736842,0.8473684210526315
1264,0.03205128205128205,0.11538461538461539,0.8461538461538461,0.00641025641025641
1265,0.011790393013100437,0.9759825327510917,0.010917030567685589,0.0013100436681222707
1266,0.22971014492753622,0.029710144927536233,0.7289855072463768,0.011594202898550725
1267,0.452,0.096,0.448,0.004
1268,0.011790393013100437,0.9759825327510917,0.010917030567685589,0.0013100436681222707
1269,0.011790393013100437,0.9759825327510917,0.010917030567685589,0.0013100436681222707
1270,0.452,0.096,0.448,0.004
1271,0.39574468085106385,0.0,0.03404255319148936,0.5702127659574469
1272,0.017964071856287425,0.8203592814371258,0.16167664670658682,0.0
1273,0.3072916666666667,0.16145833333333334,0.5130208333333334,0.018229166666666668
1274,0.0989010989010989,0.0,0.03663003663003663,0.8644688644688645
1275,0.14736842105263157,0.0,0.005263157894736842,0.8473684210526315
1276,0.03205128205128205,0.11538461538461539,0.8461538461538461,0.00641025641025641
1277,0.011790393013100437,0.9759825327510917,0.010917030567685589,0.0013100436681222707
1278,0.3103448275862069,0.6724137931034483,0.017241379310344827,0.0
1279,0.011790393013100437,0.9759825327510917,0.010917030567685589,0.0013100436681222707
1280,0.6956521739130435,0.08695652173913043,0.17391304347826086,0.043478260869565216
1281,0.3072916666666667,0.16145833333333334,0.5130208333333334,0.018229166666666668
1282,0.22971014492753622,0.029710144927536233,0.7289855072463768,0.011594202898550725
1283,0.0989010989010989,0.0,0.03663003663003663,0.8644688644688645
1284,0.0989010989010989,0.0,0.03663003663003663,0.8644688644688645
1285,0.3253424657534247,0.0,0.010273972602739725,0.6643835616438356
1286,0.011790393013100437,0.9759825327510917,0.010917030567685589,0.0013100436681222707
1287,0.22971014492753622,0.029710144927536233,0.7289855072463768,0.011594202898550725
1288,0.6724137931034483,0.008620689655172414,0.2413793103448276,0.07758620689655173
1289,0.011790393013100437,0.9759825327510917,0.010917030567685589,0.0013100436681222707
1290,0.6956521739130435,0.08695652173913043,0.17391304347826086,0.043478260869565216
1291,0.011790393013100437,0.9759825327510917,0.010917030567685589,0.0013100436681222707
1292,0.0,1.0,0.0,0.0
1293,0.22971014492753622,0.029710144927536233,0.7289855072463768,0.011594202898550725
1294,0.3072916666666667,0.16145833333333334,0.5130208333333334,0.018229166666666668
1295,0.6724137931034483,0.008620689655172414,0.2413793103448276,0.07758620689655173
1296,0.03205128205128205,0.11538461538461539,0.8461538461538461,0.00641025641025641
1297,0.42105263157894735,0.0,0.15789473684210525,0.42105263157894735
1298,0.017964071856287425,0.8203592814371258,0.16167664670658682,0.0
1299,0.22971014492753622,0.029710144927536233,0.7289855072463768,0.011594202898550725
1300,0.8917525773195877,0.005154639175257732,0.04639175257731959,0.05670103092783505
1301,0.03856749311294766,0.8650137741046832,0.09090909090909091,0.005509641873278237
1302,0.3253424657534247,0.0,0.010273972602739725,0.6643835616438356
1303,0.13990825688073394,0.0,0.07339449541284404,0.786697247706422
1304,0.14736842105263157,0.0,0.005263157894736842,0.8473684210526315
1305,0.011790393013100437,0.9759825327510917,0.010917030567685589,0.0013100436681222707
1306,0.08181818181818182,0.004545454545454545,0.004545454545454545,0.9090909090909091
1307,0.22971014492753622,0.029710144927536233,0.7289855072463768,0.011594202898550725
1308,0.13990825688073394,0.0,0.07339449541284404,0.786697247706422
1309,0.452,0.096,0.448,0.004
1310,0.5306122448979592,0.4489795918367347,0.0,0.02040816326530612
1311,0.011790393013100437,0.9759825327510917,0.010917030567685589,0.0013100436681222707
1312,0.8,0.2,0.0,0.0
1313,0.5276679841897233,0.0,0.023715415019762844,0.44861660079051385
1314,0.011790393013100437,0.9759825327510917,0.010917030567685589,0.0013100436681222707
1315,0.08974358974358974,0.5128205128205128,0.38461538461538464,0.01282051282051282
1316,0.011790393013100437,0.9759825327510917,0.010917030567685589,0.0013100436681222707
1317,0.011790393013100437,0.9759825327510917,0.010917030567685589,0.0013100436681222707
1318,0.011790393013100437,0.9759825327510917,0.010917030567685589,0.0013100436681222707
1319,0.22971014492753622,0.029710144927536233,0.7289855072463768,0.011594202898550725
1320,0.22971014492753622,0.029710144927536233,0.7289855072463768,0.011594202898550725
1321,0.3253424657534247,0.0,0.010273972602739725,0.6643835616438356
1322,0.08181818181818182,0.004545454545454545,0.004545454545454545,0.9090909090909091
1323,0.22971014492753622,0.029710144927536233,0.7289855072463768,0.011594202898550725
1324,0.011790393013100437,0.9759825327510917,0.010917030567685589,0.0013100436681222707
1325,0.011790393013100437,0.9759825327510917,0.010917030567685589,0.0013100436681222707
1326,0.13990825688073394,0.0,0.07339449541284404,0.786697247706422
1327,0.011790393013100437,0.9759825327510917,0.010917030567685589,0.0013100436681222707
1328,0.22971014492753622,0.029710144927536233,0.7289855072463768,0.011594202898550725
1329,0.011790393013100437,0.9759825327510917,0.010917030567685589,0.0013100436681222707
1330,0.03856749311294766,0.8650137741046832,0.09090909090909091,0.005509641873278237
1331,0.22971014492753622,0.029710144927536233,0.7289855072463768,0.011594202898550725
1332,0.011790393013100437,0.9759825327510917,0.010917030567685589,0.0013100436681222707
1333,0.011790393013100437,0.9759825327510917,0.010917030567685589,0.0013100436681222707
1334,0.6724137931034483,0.008620689655172414,0.2413793103448276,0.07758620689655173
1335,0.011790393013100437,0.9759825327510917,0.010917030567685589,0.0013100436681222707
1336,0.22971014492753622,0.029710144927536233,0.7289855072463768,0.011594202898550725
1337,0.5679012345679012,0.0,0.0,0.43209876543209874
1338,0.22971014492753622,0.029710144927536233,0.7289855072463768,0.011594202898550725
1339,0.011790393013100437,0.9759825327510917,0.010917030567685589,0.0013100436681222707
1340,0.5276679841897233,0.0,0.023715415019762844,0.44861660079051385
1341,0.03856749311294766,0.8650137741046832,0.09090909090909091,0.005509641873278237
1342,0.03856749311294766,0.8650137741046832,0.09090909090909091,0.005509641873278237
1343,0.08181818181818182,0.004545454545454545,0.004545454545454545,0.9090909090909091
1344,0.22971014492753622,0.029710144927536233,0.7289855072463768,0.011594202898550725
1345,0.011790393013100437,0.9759825327510917,0.010917030567685589,0.0013100436681222707
1346,0.011790393013100437,0.9759825327510917,0.010917030567685589,0.0013100436681222707
1347,0.011790393013100437,0.9759825327510917,0.010917030567685589,0.0013100436681222707
1348,0.011790393013100437,0.9759825327510917,0.010917030567685589,0.0013100436681222707
1349,0.011790393013100437,0.9759825327510917,0.010917030567685589,0.0013100436681222707
1350,0.6724137931034483,0.008620689655172414,0.2413793103448276,0.07758620689655173
1351,0.14736842105263157,0.0,0.005263157894736842,0.8473684210526315
1352,0.22971014492753622,0.029710144927536233,0.7289855072463768,0.011594202898550725
1353,0.452,0.096,0.448,0.004
1354,0.011790393013100437,0.9759825327510917,0.010917030567685589,0.0013100436681222707
1355,0.011790393013100437,0.9759825327510917,0.010917030567685589,0.0013100436681222707
1356,0.0,0.896551724137931,0.10344827586206896,0.0
1357,0.3072916666666667,0.16145833333333334,0.5130208333333334,0.018229166666666668
1358,0.3072916666666667,0.16145833333333334,0.5130208333333334,0.018229166666666668
1359,0.5679012345679012,0.0,0.0,0.43209876543209874
1360,0.22971014492753622,0.029710144927536233,0.7289855072463768,0.011594202898550725
1361,0.011790393013100437,0.9759825327510917,0.010917030567685589,0.0013100436681222707
1362,0.08974358974358974,0.5128205128205128,0.38461538461538464,0.01282051282051282
1363,0.0989010989010989,0.0,0.03663003663003663,0.8644688644688645
1364,0.0,1.0,0.0,0.0
1365,0.011790393013100437,0.9759825327510917,0.010917030567685589,0.0013100436681222707
1366,0.011790393013100437,0.9759825327510917,0.010917030567685589,0.0013100436681222707
1367,0.011790393013100437,0.9759825327510917,0.010917030567685589,0.0013100436681222707
1368,0.22971014492753622,0.029710144927536233,0.7289855072463768,0.011594202898550725
1369,0.03856749311294766,0.8650137741046832,0.09090909090909091,0.005509641873278237
1370,0.3072916666666667,0.16145833333333334,0.5130208333333334,0.018229166666666668
1371,0.22971014492753622,0.029710144927536233,0.7289855072463768,0.011594202898550725
1372,0.0989010989010989,0.0,0.03663003663003663,0.8644688644688645
1373,0.5276679841897233,0.0,0.023715415019762844,0.44861660079051385
1374,0.011790393013100437,0.9759825327510917,0.010917030567685589,0.0013100436681222707
1375,0.452,0.096,0.448,0.004
1376,0.3103448275862069,0.6724137931034483,0.017241379310344827,0.0
1377,0.011790393013100437,0.9759825327510917,0.010917030567685589,0.0013100436681222707
1378,0.13990825688073394,0.0,0.07339449541284404,0.786697247706422
1379,0.0,0.0,0.0,1.0
1380,0.14736842105263157,0.0,0.005263157894736842,0.8473684210526315
1381,0.011790393013100437,0.9759825327510917,0.010917030567685589,0.0013100436681222707
1382,0.5276679841897233,0.0,0.023715415019762844,0.44861660079051385
1383,0.14736842105263157,0.0,0.005263157894736842,0.8473684210526315
1384,0.6724137931034483,0.008620689655172414,0.2413793103448276,0.07758620689655173
1385,0.5276679841897233,0.0,0.023715415019762844,0.44861660079051385
1386,0.14736842105263157,0.0,0.005263157894736842,0.8473684210526315
1387,0.8917525773195877,0.005154639175257732,0.04639175257731959,0.05670103092783505
1388,1.0,0.0,0.0,0.0
1389,0.22971014492753622,0.029710144927536233,0.7289855072463768,0.011594202898550725
1390,0.3072916666666667,0.16145833333333334,0.5130208333333334,0.018229166666666668
1391,0.22971014492753622,0.029710144927536233,0.7289855072463768,0.011594202898550725
1392,0.011790393013100437,0.9759825327510917,0.010917030567685589,0.0013100436681222707
1393,0.011790393013100437,0.9759825327510917,0.010917030567685589,0.0013100436681222707
1394,0.22971014492753622,0.029710144927536233,0.7289855072463768,0.011594202898550725
1395,0.22971014492753622,0.029710144927536233,0.7289855072463768,0.011594202898550725
1396,0.22971014492753622,0.029710144927536233,0.7289855072463768,0.011594202898550725
1397,0.0,0.0,0.0,1.0
1398,0.011790393013100437,0.9759825327510917,0.010917030567685589,0.0013100436681222707
1399,0.011790393013100437,0.9759825327510917,0.010917030567685589,0.0013100436681222707
1400,0.3253424657534247,0.0,0.010273972602739725,0.6643835616438356
1401,0.3072916666666667,0.16145833333333334,0.5130208333333334,0.018229166666666668
1402,0.03205128205128205,0.11538461538461539,0.8461538461538461,0.00641025641025641
1403,0.011790393013100437,0.9759825327510917,0.010917030567685589,0.0013100436681222707
1404,0.011790393013100437,0.9759825327510917,0.010917030567685589,0.0013100436681222707
1405,0.011790393013100437,0.9759825327510917,0.010917030567685589,0.0013100436681222707
1406,0.03856749311294766,0.8650137741046832,0.09090909090909091,0.005509641873278237
1407,0.011790393013100437,0.9759825327510917,0.010917030567685589,0.0013100436681222707
1408,0.39574468085106385,0.0,0.03404255319148936,0.5702127659574469
1409,0.21052631578947367,0.0,0.0,0.7894736842105263
1410,0.011790393013100437,0.9759825327510917,0.010917030567685589,0.0013100436681222707
1411,0.011790393013100437,0.9759825327510917,0.010917030567685589,0.0013100436681222707
1412,0.8917525773195877,0.005154639175257732,0.04639175257731959,0.05670103092783505
1413,0.22971014492753622,0.029710144927536233,0.7289855072463768,0.011594202898550725
1414,0.0989010989010989,0.0,0.03663003663003663,0.8644688644688645
1415,0.8917525773195877,0.005154639175257732,0.04639175257731959,0.05670103092783505
1416,0.22971014492753622,0.029710144927536233,0.7289855072463768,0.011594202898550725
1417,0.011790393013100437,0.9759825327510917,0.010917030567685589,0.0013100436681222707
1418,0.22971014492753622,0.029710144927536233,0.7289855072463768,0.011594202898550725
1419,0.39574468085106385,0.0,0.03404255319148936,0.5702127659574469
1420,0.22971014492753622,0.029710144927536233,0.7289855072463768,0.011594202898550725
1421,0.011790393013100437,0.9759825327510917,0.010917030567685589,0.0013100436681222707
1422,0.011790393013100437,0.9759825327510917,0.010917030567685589,0.0013100436681222707
1423,0.017964071856287425,0.8203592814371258,0.16167664670658682,0.0
1424,0.5679012345679012,0.0,0.0,0.43209876543209874
1425,0.13990825688073394,0.0,0.07339449541284404,0.786697247706422
1426,0.03856749311294766,0.8650137741046832,0.09090909090909091,0.005509641873278237
1427,0.011790393013100437,0.9759825327510917,0.010917030567685589,0.0013100436681222707
1428,0.5276679841897233,0.0,0.023715415019762844,0.44861660079051385
1429,0.22971014492753622,0.029710144927536233,0.7289855072463768,0.011594202898550725
1430,0.8917525773195877,0.005154639175257732,0.04639175257731959,0.05670103092783505
1431,0.03205128205128205,0.11538461538461539,0.8461538461538461,0.00641025641025641
1432,0.3072916666666667,0.16145833333333334,0.5130208333333334,0.018229166666666668
1433,0.22971014492753622,0.029710144927536233,0.7289855072463768,0.011594202898550725
1434,0.011790393013100437,0.9759825327510917,0.010917030567685589,0.0013100436681222707
1435,0.13990825688073394,0.0,0.07339449541284404,0.786697247706422
1436,0.011790393013100437,0.9759825327510917,0.010917030567685589,0.0013100436681222707
1437,0.22971014492753622,0.029710144927536233,0.7289855072463768,0.011594202898550725
1438,0.452,0.096,0.448,0.004
1439,0.22971014492753622,0.029710144927536233,0.7289855072463768,0.011594202898550725
1440,0.011790393013100437,0.9759825327510917,0.010917030567685589,0.0013100436681222707
1441,0.5276679841897233,0.0,0.023715415019762844,0.44861660079051385
1442,0.011790393013100437,0.9759825327510917,0.010917030567685589,0.0013100436681222707
1443,0.08181818181818182,0.004545454545454545,0.004545454545454545,0.9090909090909091
1444,0.011790393013100437,0.9759825327510917,0.010917030567685589,0.0013100436681222707
1445,0.0,1.0,0.0,0.0
1446,0.22971014492753622,0.029710144927536233,0.7289855072463768,0.011594202898550725
1447,0.0989010989010989,0.0,0.03663003663003663,0.8644688644688645
1448,0.011790393013100437,0.9759825327510917,0.010917030567685589,0.0013100436681222707
1449,0.02631578947368421,0.0,0.10526315789473684,0.868421052631579
1450,0.011790393013100437,0.9759825327510917,0.010917030567685589,0.0013100436681222707
1451,0.017964071856287425,0.8203592814371258,0.16167664670658682,0.0
1452,0.011790393013100437,0.9759825327510917,0.010917030567685589,0.0013100436681222707
1453,0.13990825688073394,0.0,0.07339449541284404,0.786697247706422
1454,0.0,0.0,0.0,1.0
1455,0.14736842105263157,0.0,0.005263157894736842,0.8473684210526315
1456,0.011790393013100437,0.9759825327510917,0.010917030567685589,0.0013100436681222707
1457,0.13990825688073394,0.0,0.07339449541284404,0.786697247706422
1458,0.011790393013100437,0.9759825327510917,0.010917030567685589,0.0013100436681222707
1459,0.011790393013100437,0.9759825327510917,0.010917030567685589,0.0013100436681222707
1460,0.011790393013100437,0.9759825327510917,0.010917030567685589,0.0013100436681222707
1461,0.011790393013100437,0.9759825327510917,0.010917030567685589,0.0013100436681222707
1462,0.22971014492753622,0.029710144927536233,0.7289855072463768,0.011594202898550725
1463,0.22971014492753622,0.029710144927536233,0.7289855072463768,0.011594202898550725
1464,0.3253424657534247,0.0,0.010273972602739725,0.6643835616438356
1465,0.3253424657534247,0.0,0.010273972602739725,0.6643835616438356
1466,0.5276679841897233,0.0,0.023715415019762844,0.44861660079051385
1467,0.5276679841897233,0.0,0.023715415019762844,0.44861660079051385
1468,0.011790393013100437,0.9759825327510917,0.010917030567685589,0.0013100436681222707
1469,0.452,0.096,0.448,0.004
1470,0.2222222222222222,0.4888888888888889,0.28888888888888886,0.0
1471,0.011790393013100437,0.9759825327510917,0.010917030567685589,0.0013100436681222707
1472,0.22971014492753622,0.029710144927536233,0.7289855072463768,0.011594202898550725
1473,0.03856749311294766,0.8650137741046832,0.09090909090909091,0.005509641873278237
1474,0.3103448275862069,0.6724137931034483,0.017241379310344827,0.0
1475,0.08181818181818182,0.004545454545454545,0.004545454545454545,0.9090909090909091
1476,0.011790393013100437,0.9759825327510917,0.010917030567685589,0.0013100436681222707
1477,0.03205128205128205,0.11538461538461539,0.8461538461538461,0.00641025641025641
1478,0.2222222222222222,0.4888888888888889,0.28888888888888886,0.0
1479,0.011790393013100437,0.9759825327510917,0.010917030567685589,0.0013100436681222707
1480,0.3072916666666667,0.16145833333333334,0.5130208333333334,0.018229166666666668
1481,0.03856749311294766,0.8650137741046832,0.09090909090909091,0.005509641873278237
1482,0.39574468085106385,0.0,0.03404255319148936,0.5702127659574469
1483,0.011790393013100437,0.9759825327510917,0.010917030567685589,0.0013100436681222707
1484,0.5276679841897233,0.0,0.023715415019762844,0.44861660079051385
1485,0.5862068965517241,0.11494252873563218,0.26436781609195403,0.034482758620689655
1486,0.22971014492753622,0.029710144927536233,0.7289855072463768,0.011594202898550725
1487,0.011790393013100437,0.9759825327510917,0.010917030567685589,0.0013100436681222707
1488,0.22971014492753622,0.029710144927536233,0.7289855072463768,0.011594202898550725
1489,0.22971014492753622,0.029710144927536233,0.7289855072463768,0.011594202898550725
1490,0.39574468085106385,0.0,0.03404255319148936,0.5702127659574469
1491,0.22971014492753622,0.029710144927536233,0.7289855072463768,0.011594202898550725
1492,0.5276679841897233,0.0,0.023715415019762844,0.44861660079051385
1493,0.03856749311294766,0.8650137741046832,0.09090909090909091,0.005509641873278237
1494,0.0,0.0,0.0,1.0
1495,0.39574468085106385,0.0,0.03404255319148936,0.5702127659574469
1496,0.3072916666666667,0.16145833333333334,0.5130208333333334,0.018229166666666668
1497,0.5276679841897233,0.0,0.023715415019762844,0.44861660079051385
1498,0.011790393013100437,0.9759825327510917,0.010917030567685589,0.0013100436681222707
1499,0.21052631578947367,0.0,0.0,0.7894736842105263
1500,0.14736842105263157,0.0,0.005263157894736842,0.8473684210526315
1501,0.6724137931034483,0.008620689655172414,0.2413793103448276,0.07758620689655173
1502,0.13990825688073394,0.0,0.07339449541284404,0.786697247706422
1503,0.6724137931034483,0.008620689655172414,0.2413793103448276,0.07758620689655173
1504,0.011790393013100437,0.9759825327510917,0.010917030567685589,0.0013100436681222707
1505,0.011790393013100437,0.9759825327510917,0.010917030567685589,0.0013100436681222707
1506,0.13990825688073394,0.0,0.07339449541284404,0.786697247706422
1507,0.3072916666666667,0.16145833333333334,0.5130208333333334,0.018229166666666668
1508,0.13990825688073394,0.0,0.07339449541284404,0.786697247706422
1509,0.5276679841897233,0.0,0.023715415019762844,0.44861660079051385
1510,0.011790393013100437,0.9759825327510917,0.010917030567685589,0.0013100436681222707
1511,0.011790393013100437,0.9759825327510917,0.010917030567685589,0.0013100436681222707
1512,0.011790393013100437,0.9759825327510917,0.010917030567685589,0.0013100436681222707
1513,0.3072916666666667,0.16145833333333334,0.5130208333333334,0.018229166666666668
1514,0.22971014492753622,0.029710144927536233,0.7289855072463768,0.011594202898550725
1515,0.22971014492753622,0.029710144927536233,0.7289855072463768,0.011594202898550725
1516,0.5276679841897233,0.0,0.023715415019762844,0.44861660079051385
1517,0.011790393013100437,0.9759825327510917,0.010917030567685589,0.0013100436681222707
1518,0.0,0.0,0.0,1.0
1519,0.3253424657534247,0.0,0.010273972602739725,0.6643835616438356
1520,0.13990825688073394,0.0,0.07339449541284404,0.786697247706422
1521,0.13990825688073394,0.0,0.07339449541284404,0.786697247706422
1522,0.011790393013100437,0.9759825327510917,0.010917030567685589,0.0013100436681222707
1523,0.39574468085106385,0.0,0.03404255319148936,0.5702127659574469
1524,0.8917525773195877,0.005154639175257732,0.04639175257731959,0.05670103092783505
1525,0.22971014492753622,0.029710144927536233,0.7289855072463768,0.011594202898550725
1526,0.011790393013100437,0.9759825327510917,0.010917030567685589,0.0013100436681222707
1527,0.011790393013100437,0.9759825327510917,0.010917030567685589,0.0013100436681222707
1528,1.0,0.0,0.0,0.0
1529,0.3253424657534247,0.0,0.010273972602739725,0.6643835616438356
1530,0.3253424657534247,0.0,0.010273972602739725,0.6643835616438356
1531,0.22971014492753622,0.029710144927536233,0.7289855072463768,0.011594202898550725
1532,0.452,0.096,0.448,0.004
1533,0.5276679841897233,0.0,0.023715415019762844,0.44861660079051385
1534,0.011790393013100437,0.9759825327510917,0.010917030567685589,0.0013100436681222707
1535,0.011790393013100437,0.9759825327510917,0.010917030567685589,0.0013100436681222707
1536,0.5276679841897233,0.0,0.023715415019762844,0.44861660079051385
1537,0.22971014492753622,0.029710144927536233,0.7289855072463768,0.011594202898550725
1538,0.5276679841897233,0.0,0.023715415019762844,0.44861660079051385
1539,0.5276679841897233,0.0,0.023715415019762844,0.44861660079051385
1540,0.011790393013100437,0.9759825327510917,0.010917030567685589,0.0013100436681222707
1541,0.22971014492753622,0.029710144927536233,0.7289855072463768,0.011594202898550725
1542,0.0,0.896551724137931,0.10344827586206896,0.0
1543,0.13990825688073394,0.0,0.07339449541284404,0.786697247706422
1544,0.011790393013100437,0.9759825327510917,0.010917030567685589,0.0013100436681222707
1545,0.0,1.0,0.0,0.0
1546,0.03856749311294766,0.8650137741046832,0.09090909090909091,0.005509641873278237
1547,0.39574468085106385,0.0,0.03404255319148936,0.5702127659574469
1548,0.5679012345679012,0.0,0.0,0.43209876543209874
1549,0.22971014492753622,0.029710144927536233,0.7289855072463768,0.011594202898550725
1550,0.011790393013100437,0.9759825327510917,0.010917030567685589,0.0013100436681222707
1551,0.22971014492753622,0.029710144927536233,0.7289855072463768,0.011594202898550725
1552,0.3072916666666667,0.16145833333333334,0.5130208333333334,0.018229166666666668
1553,0.08181818181818182,0.004545454545454545,0.004545454545454545,0.9090909090909091
1554,0.22971014492753622,0.029710144927536233,0.7289855072463768,0.011594202898550725
1555,0.3072916666666667,0.16145833333333334,0.5130208333333334,0.018229166666666668
1556,0.5276679841897233,0.0,0.023715415019762844,0.44861660079051385
1557,0.3072916666666667,0.16145833333333334,0.5130208333333334,0.018229166666666668
1558,0.3072916666666667,0.16145833333333334,0.5130208333333334,0.018229166666666668
1559,0.22971014492753622,0.029710144927536233,0.7289855072463768,0.011594202898550725
1560,0.22971014492753622,0.029710144927536233,0.7289855072463768,0.011594202898550725
1561,0.5276679841897233,0.0,0.023715415019762844,0.44861660079051385
1562,0.011790393013100437,0.9759825327510917,0.010917030567685589,0.0013100436681222707
1563,0.3253424657534247,0.0,0.010273972602739725,0.6643835616438356
1564,0.011790393013100437,0.9759825327510917,0.010917030567685589,0.0013100436681222707
1565,0.011790393013100437,0.9759825327510917,0.010917030567685589,0.0013100436681222707
1566,0.3072916666666667,0.16145833333333334,0.5130208333333334,0.018229166666666668
1567,0.0,0.0,0.0,1.0
1568,0.3253424657534247,0.0,0.010273972602739725,0.6643835616438356
1569,0.14736842105263157,0.0,0.005263157894736842,0.8473684210526315
1570,0.011790393013100437,0.9759825327510917,0.010917030567685589,0.0013100436681222707
